freq,mag,phase
6.0,0.9999986977608973,119.69745795554567
6.008,0.9999989705179482,119.61375693942024
6.016,0.9999992384880169,119.53004293743517
6.024,0.9999995017261027,119.44631592925961
6.032,0.9999997602868157,119.36257589456612
6.04,1.0,119.2788228130309
6.048,0.9999999999999999,119.19505666433366
6.056,1.0,119.11127742815773
6.064,1.0,119.0274850841901
6.072,1.0,118.94367961212139
6.08,1.0,118.8598609916459
6.088,0.9999999999999999,118.77602920246166
6.096,1.0,118.69218422427046
6.104,1.0,118.60832603677784
6.112,0.9999999999999999,118.52445461969313
6.12,1.0,118.44056995272948
6.128,0.9999999999999999,118.35667201560389
6.136,1.0,118.27276078803725
6.144,1.0,118.1888362497543
6.152,1.0,118.10489838048379
6.16,1.0,118.02094715995831
6.168,1.0,117.93698256791447
6.176,1.0,117.85300458409286
6.184,1.0,117.76901318823818
6.192,0.9999999999999999,117.685008360099
6.2,1.0,117.60099007942813
6.208,1.0,117.51695832598233
6.216,0.9999999999999999,117.43291307952258
6.224,1.0,117.34885431981391
6.232,1.0000000000000002,117.26478202662555
6.24,1.0,117.18069617973087
6.248,1.0,117.0965967589075
6.256,1.0,117.01248374393722
6.264,0.9999999999999999,116.92835711460609
6.272,1.0,116.84421685070446
6.28,1.0,116.76006293202686
6.288,0.9999999999999999,116.67589533837221
6.296,1.0000000000000002,116.59171404954371
6.304,1.0,116.5075190453489
6.312,1.0,116.42331030559974
6.32,1.0,116.33908781011249
6.328,0.9999999999999999,116.25485153870781
6.336,1.0,116.17060147121079
6.344,1.0,116.086337587451
6.352,0.9999999999999999,116.00205986726239
6.36,1.0,115.91776829048337
6.368,1.0,115.8334628369569
6.376,1.0,115.74914348653039
6.384,1.0,115.66481021905577
6.392,1.0,115.58046301438951
6.4,1.0,115.49610185239264
6.408,1.0,115.4117267129307
6.416,1.0,115.32733757587388
6.424,1.0000000000000002,115.24293442109689
6.432,0.9999999999999999,115.15851722847914
6.44,1.0,115.07408597790453
6.448,0.9999999999999999,114.98964064926172
6.456,1.0,114.90518122244396
6.464,1.0,114.82070767734912
6.472,1.0,114.73621999387986
6.48,0.9999999999999999,114.65171815194338
6.4879999999999995,0.9999999999999999,114.56720213145171
6.496,1.0,114.48267191232149
6.504,0.9999999999999999,114.39812747447417
6.5120000000000005,0.9999999999999999,114.31356879783586
6.52,1.0,114.22899586233746
6.5280000000000005,1.0,114.14440864791459
6.536,1.0,114.05980713450768
6.5440000000000005,0.9999999999999999,113.97519130206187
6.552,0.9999999999999999,113.89056113052716
6.5600000000000005,1.0,113.80591659985829
6.568,0.9999999999999999,113.72125769001485
6.5760000000000005,0.9999999999999999,113.63658438096115
6.584,1.0,113.55189665266644
6.592,1.0,113.46719448510474
6.6,1.0,113.3824778582549
6.608,1.0,113.29774675210061
6.616,1.0,113.21300114663043
6.624,1.0,113.12824102183778
6.632,1.0,113.04346635772093
6.64,0.9999999999999999,112.95867713428302
6.648,0.9999999999999999,112.87387333153211
6.656,1.0000000000000002,112.78905492948107
6.664,0.9999999999999999,112.7042219081477
6.672,1.0,112.61937424755467
6.68,0.9999999999999999,112.5345119277296
6.688,1.0,112.44963492870494
6.696,0.9999999999999999,112.36474323051807
6.704,1.0,112.2798368132113
6.712,1.0,112.19491565683185
6.72,1.0,112.10997974143183
6.728,1.0000000000000002,112.02502904706826
6.736,1.0,111.94006355380311
6.744,1.0,111.85508324170326
6.752,1.0,111.77008809084049
6.76,0.9999999999999999,111.68507808129154
6.768,0.9999999999999999,111.60005319313805
6.776,0.9999999999999999,111.5150134064666
6.784,0.9999999999999999,111.42995870136868
6.792,1.0,111.34488905794072
6.8,1.0,111.25980445628409
6.808,1.0,111.174704876505
6.816,1.0,111.08959029871471
6.824,1.0,111.00446070302931
6.832,1.0,110.91931606956983
6.84,1.0,110.83415637846223
6.848,1.0,110.74898160983739
6.856,0.9999999999999998,110.66379174383108
6.864,1.0,110.57858676058399
6.872,0.9999999999999999,110.49336664024172
6.88,0.9999999999999999,110.40813136295476
6.888,0.9999999999999999,110.32288090887852
6.896,1.0,110.23761525817328
6.904,1.0,110.1523343910042
6.912,0.9999999999999999,110.06703828754135
6.92,1.0,109.98172692795968
6.928,1.0,109.89640029243898
6.936,0.9999999999999999,109.81105836116394
6.944,0.9999999999999999,109.72570111432407
6.952,1.0,109.64032853211374
6.96,1.0,109.5549405947322
6.968,1.0,109.4695372823835
6.976,1.0,109.38411857527655
6.984,0.9999999999999999,109.29868445362501
6.992,1.0,109.21323489764747
7.0,0.9999999999999999,109.1277698875672
7.008,0.9999999999999999,109.04228940361232
7.016,0.9999999999999999,108.95679342601572
7.024,1.0,108.8712819350151
7.032,0.9999999999999999,108.78575491085289
7.04,1.0,108.70021233377625
7.048,0.9999999999999999,108.6146541840371
7.056,0.9999999999999999,108.5290804418921
7.064,1.0,108.4434910876026
7.072,1.0,108.3578861014347
7.08,0.9999999999999999,108.27226546365914
7.088,1.0,108.18662915455137
7.096,1.0,108.10097715439147
7.104,1.0,108.01530944346422
7.112,1.0,107.929626002059
7.12,1.0,107.84392681046981
7.128,1.0,107.75821184899527
7.136,1.0,107.6724810979386
7.144,0.9999999999999999,107.58673453760758
7.152,0.9999999999999999,107.50097214831457
7.16,0.9999999999999999,107.41519391037643
7.168,1.0,107.32939980411462
7.176,0.9999999999999999,107.24358980985501
7.184,1.0,107.15776390792807
7.192,0.9999999999999998,107.07192207866866
7.2,1.0,106.98606430241612
7.208,0.9999999999999999,106.90019055951429
7.216,0.9999999999999999,106.81430083031131
7.224,1.0,106.72839509515983
7.232,0.9999999999999999,106.64247333441679
7.24,1.0,106.55653552844356
7.248,1.0,106.4705816576058
7.256,1.0,106.38461170227353
7.264,0.9999999999999998,106.29862564282102
7.272,1.0,106.21262345962685
7.28,1.0,106.12660513307382
7.288,1.0,106.040570643549
7.296,1.0,105.95451997144364
7.304,1.0000000000000002,105.86845309715316
7.312,1.0,105.7823700010772
7.32,0.9999999999999999,105.69627066361946
7.328,0.9999999999999998,105.61015506518778
7.336,1.0,105.52402318619411
7.344,0.9999999999999999,105.43787500705446
7.352,1.0,105.35171050818883
7.36,0.9999999999999999,105.26552967002128
7.368,1.0,105.17933247297984
7.376,0.9999999999999999,105.09311889749645
7.384,1.0,105.00688892400707
7.392,0.9999999999999999,104.92064253295149
7.4,0.9999999999999999,104.8343797047734
7.4079999999999995,1.0,104.74810041992033
7.416,0.9999999999999999,104.66180465884361
7.4239999999999995,1.0,104.57549240199842
7.432,1.0,104.4891636298436
7.4399999999999995,0.9999999999999999,104.40281832284182
7.448,1.0,104.31645646145937
7.4559999999999995,1.0,104.23007802616625
7.464,0.9999999999999999,104.14368299743606
7.4719999999999995,1.0,104.05727135574607
7.48,1.0,103.97084308157703
7.4879999999999995,1.0,103.8843981554133
7.496,0.9999999999999999,103.79793655774272
7.504,1.0,103.7114582690566
7.5120000000000005,0.9999999999999999,103.6249632698497
7.52,1.0,103.53845154062019
7.5280000000000005,1.0,103.45192306186959
7.536,0.9999999999999999,103.36537781410277
7.5440000000000005,0.9999999999999998,103.2788157778279
7.552,1.0,103.19223693355643
7.5600000000000005,0.9999999999999999,103.10564126180297
7.568,1.0,103.01902874308543
7.5760000000000005,1.0,102.93239935792478
7.584,1.0,102.84575308684519
7.5920000000000005,1.0,102.75908991037382
7.6,1.0,102.67240980904093
7.6080000000000005,1.0,102.58571276337976
7.616,0.9999999999999999,102.49899875392654
7.6240000000000006,1.0,102.4122677612204
7.632,0.9999999999999999,102.32551976580338
7.640000000000001,1.0,102.23875474822029
7.648,0.9999999999999999,102.15197268901883
7.656000000000001,1.0,102.0651735687494
7.664,0.9999999999999999,101.9783573679652
7.672,1.0,101.89152406722198
7.68,1.0,101.80467364707823
7.688,1.0,101.717806088095
7.696,0.9999999999999999,101.63092137083588
7.704,0.9999999999999999,101.54401947586695
7.712,0.9999999999999999,101.45710038375677
7.72,0.9999999999999999,101.37016407507632
7.728,1.0,101.28321053039893
7.736,1.0,101.19623973030028
7.744,0.9999999999999998,101.10925165535829
7.752,0.9999999999999999,101.02224628615313
7.76,1.0,100.93522360326716
7.768,1.0,100.84818358728486
7.776,1.0,100.76112621879282
7.784,0.9999999999999999,100.67405147837965
7.792,0.9999999999999999,100.58695934663596
7.8,1.0,100.49984980415427
7.808,1.0,100.41272283152905
7.816,1.0,100.32557840935655
7.824,0.9999999999999999,100.23841651823487
7.832,1.0,100.15123713876379
7.84,0.9999999999999999,100.06404025154482
7.848,1.0,99.9768258371811
7.856,1.0,99.8895938762773
7.864,1.0,99.80234434943971
7.872,1.0,99.71507723727602
7.88,0.9999999999999999,99.62779252039539
7.888,0.9999999999999999,99.54049017940832
7.896,1.0,99.45317019492664
7.904,0.9999999999999998,99.3658325475634
7.912,1.0,99.2784772179329
7.92,1.0,99.19110418665058
7.928,1.0,99.10371343433293
7.936,0.9999999999999999,99.0163049415975
7.944,0.9999999999999999,98.92887868906281
7.952,1.0,98.8414346573483
7.96,0.9999999999999999,98.75397282707425
7.968,0.9999999999999999,98.66649317886174
7.976,1.0,98.57899569333262
7.984,1.0,98.49148035110937
7.992,0.9999999999999999,98.4039471328151
8.0,1.0,98.31639601907354
8.008,1.0,98.2288269905088
8.016,1.0,98.14124002774548
8.024000000000001,1.0,98.05363511140858
8.032,1.0,97.96601222212338
8.04,1.0,97.87837134051539
8.048,1.0,97.79071244721028
8.056000000000001,1.0,97.70303552283389
8.064,0.9999999999999999,97.61534054801209
8.072,0.9999999999999999,97.5276275033707
8.08,1.0,97.43989636953549
8.088000000000001,1.0,97.35214712713207
8.096,1.0,97.26437975678587
8.104,1.0,97.17659423912197
8.112,1.0,97.08879055476514
8.120000000000001,0.9999999999999999,97.00096868433971
8.128,1.0,96.91312860846956
8.136,1.0,96.825270307778
8.144,0.9999999999999999,96.73739376288762
8.152000000000001,0.9999999999999999,96.64949895442047
8.16,0.9999999999999999,96.5615858629977
8.168,0.9999999999999999,96.47365446923972
8.176,0.9999999999999999,96.38570475376588
8.184000000000001,0.9999999999999999,96.29773669719471
8.192,0.9999999999999999,96.20975028014358
8.2,0.9999999999999999,96.12174548322878
8.208,0.9999999999999999,96.03372228706532
8.216000000000001,0.9999999999999998,95.94568067226699
8.224,1.0,95.85762061944624
8.232,1.0,95.76954210921403
8.24,1.0,95.68144512217981
8.248000000000001,1.0,95.5933296389515
8.256,1.0,95.50519564013536
8.264,0.9999999999999999,95.41704310633583
8.272,0.9999999999999999,95.32887201815556
8.280000000000001,1.0,95.24068235619538
8.288,1.0,95.15247410105405
8.296,0.9999999999999999,95.06424723332835
8.304,0.9999999999999999,94.97600173361279
8.312,1.0,94.88773758249987
8.32,0.9999999999999998,94.79945476057961
8.328,0.9999999999999999,94.71115324843971
8.336,0.9999999999999999,94.62283302666543
8.344,0.9999999999999999,94.53449407583949
8.352,1.0,94.4461363765419
8.36,1.0,94.35775990935008
8.368,1.0,94.26936465483851
8.376,0.9999999999999999,94.18095059357893
8.384,0.9999999999999999,94.09251770613999
8.392,1.0,94.00406597308735
8.4,1.0,93.91559537498354
8.408,0.9999999999999998,93.8271058923878
8.416,0.9999999999999999,93.73859750585613
8.424,1.0,93.65007019594107
8.432,1.0,93.56152394319166
8.44,0.9999999999999999,93.4729587281534
8.448,1.0,93.3843745313681
8.456,1.0,93.29577133337379
8.464,1.0,93.20714911470466
8.472,0.9999999999999999,93.11850785589098
8.48,1.0,93.02984753745892
8.488,1.0,92.94116813993058
8.496,1.0,92.8524696438238
8.504,1.0,92.76375202965214
8.512,1.0,92.6750152779247
8.52,1.0,92.58625936914613
8.528,0.9999999999999999,92.49748428381642
8.536,1.0,92.40869000243093
8.544,1.0,92.31987650548018
8.552,0.9999999999999999,92.23104377344983
8.56,1.0,92.14219178682049
8.568,1.0,92.0533205260678
8.576,1.0,91.9644299716621
8.584,0.9999999999999999,91.87552010406856
8.592,0.9999999999999999,91.78659090374684
8.6,0.9999999999999999,91.69764235115125
8.608,1.0,91.60867442673043
8.616,1.0,91.51968711092739
8.624,1.0,91.43068038417931
8.632,1.0,91.34165422691754
8.64,1.0,91.25260861956738
8.648,1.0,91.16354354254811
8.656,0.9999999999999999,91.07445897627274
8.664,0.9999999999999999,90.98535490114804
8.672,0.9999999999999999,90.89623129757435
8.68,1.0,90.80708814594551
8.688,1.0,90.71792542664873
8.696,1.0,90.62874312006456
8.704,1.0,90.5395412065666
8.712,1.0,90.45031966652168
8.72,1.0,90.36107848028944
8.728,1.0,90.27181762822246
8.736,1.0,90.18253709066602
8.744,1.0,90.09323684795807
8.752,1.0,90.00391688042903
8.76,1.0,89.9145771684018
8.768,0.9999999999999999,89.82521769219152
8.776,1.0,89.73583843210554
8.784,0.9999999999999999,89.6464393684433
8.792,1.0,89.55702048149625
8.8,1.0,89.46758175154757
8.808,1.0,89.37812315887234
8.815999999999999,1.0,89.28864468373715
8.824,0.9999999999999999,89.1991463064001
8.832,1.0,89.1096280071108
8.84,0.9999999999999999,89.02008976611006
8.847999999999999,1.0,88.93053156362987
8.856,0.9999999999999998,88.84095337989326
8.864,0.9999999999999999,88.75135519511424
8.872,1.0,88.66173698949765
8.879999999999999,0.9999999999999999,88.57209874323895
8.888,0.9999999999999999,88.48244043652426
8.896,1.0,88.39276204953013
8.904,1.0,88.30306356242352
8.911999999999999,0.9999999999999999,88.21334495536155
8.92,0.9999999999999999,88.12360620849144
8.928,1.0,88.03384730195047
8.936,1.0,87.94406821586581
8.943999999999999,0.9999999999999998,87.85426893035428
8.952,0.9999999999999999,87.76444942552236
8.96,1.0,87.67460968146611
8.968,1.0,87.58474967827091
8.975999999999999,1.0,87.49486939601142
8.984,1.0,87.40496881475144
8.992,0.9999999999999999,87.31504791454378
9.0,0.9999999999999999,87.22510667543023
9.008,1.0,87.13514507744124
9.016,0.9999999999999999,87.04516310059591
9.024000000000001,0.9999999999999999,86.95516072490199
9.032,1.0000000000000002,86.8651379303555
9.04,1.0,86.77509469694084
9.048,1.0,86.68503100463043
9.056000000000001,0.9999999999999999,86.59494683338485
9.064,1.0,86.50484216315255
9.072,0.9999999999999999,86.41471697386966
9.08,1.0,86.32457124546008
9.088000000000001,1.0,86.23440495783515
9.096,1.0,86.14421809089366
9.104,1.0,86.05401062452164
9.112,1.0,85.96378253859221
9.120000000000001,1.0,85.87353381296562
9.128,0.9999999999999998,85.78326442748894
9.136,1.0,85.69297436199598
9.144,0.9999999999999999,85.60266359630718
9.152000000000001,1.0,85.51233211022954
9.16,1.0,85.4219798835564
9.168,0.9999999999999999,85.33160689606733
9.176,1.0,85.241213127528
9.184000000000001,0.9999999999999998,85.15079855769012
9.192,0.9999999999999999,85.06036316629127
9.2,1.0,84.9699069330547
9.208,0.9999999999999998,84.87942983768929
9.216000000000001,0.9999999999999998,84.78893185988937
9.224,1.0,84.6984129793347
9.232,0.9999999999999999,84.60787317569016
9.24,0.9999999999999999,84.51731242860572
9.248000000000001,1.0,84.42673071771635
9.256,1.0000000000000002,84.33612802264186
9.264,1.0,84.2455043229867
9.272,0.9999999999999999,84.15485959833994
9.280000000000001,1.0,84.06419382827505
9.288,1.0,83.97350699234988
9.296,1.0,83.88279907010639
9.304,0.9999999999999999,83.79207004107057
9.312000000000001,0.9999999999999999,83.70131988475246
9.32,1.0,83.61054858064583
9.328,0.9999999999999999,83.5197561082281
9.336,0.9999999999999998,83.4289424469602
9.344,0.9999999999999999,83.33810757628663
9.352,0.9999999999999999,83.24725147563498
9.36,0.9999999999999999,83.15637412441615
9.368,0.9999999999999999,83.06547550202399
9.376,1.0,82.97455558783533
9.384,1.0,82.88361436120967
9.392,0.9999999999999999,82.79265180148928
9.4,1.0,82.70166788799892
9.408,1.0,82.61066260004574
9.416,0.9999999999999999,82.51963591691917
9.424,1.0,82.42858781789083
9.432,1.0000000000000002,82.33751828221433
9.44,0.9999999999999999,82.24642728912525
9.448,1.0,82.15531481784089
9.456,0.9999999999999999,82.06418084756025
9.464,0.9999999999999999,81.9730253574639
9.472,1.0,81.8818483267138
9.48,1.0,81.7906497344532
9.488,1.0,81.6994295598066
9.496,1.0,81.60818778187951
9.504,1.0,81.51692437975842
9.512,0.9999999999999999,81.42563933251064
9.52,1.0,81.33433261918418
9.528,1.0,81.2430042188077
9.536,0.9999999999999999,81.1516541103903
9.544,1.0,81.06028227292148
9.552,0.9999999999999999,80.968888685371
9.56,0.9999999999999999,80.87747332668877
9.568,0.9999999999999999,80.78603617580471
9.576,0.9999999999999999,80.69457721162873
9.584,0.9999999999999999,80.60309641305051
9.592,1.0,80.51159375893947
9.6,1.0,80.42006922814465
9.608,1.0,80.32852279949455
9.616,0.9999999999999999,80.23695445179716
9.624,1.0,80.14536416383963
9.632,1.0,80.0537519143885
9.64,1.0,79.96211768218922
9.648,1.0,79.87046144596637
9.656,0.9999999999999999,79.77878318442336
9.664,0.9999999999999999,79.68708287624251
9.672,1.0,79.59536050008474
9.68,1.0,79.5036160345897
9.688,1.0,79.41184945837547
9.696,1.0,79.32006075003868
9.704,1.0,79.2282498881543
9.712,1.0,79.13641685127554
9.72,0.9999999999999999,79.04456161793381
9.728,0.9999999999999999,78.9526841666387
9.736,1.0,78.86078447587775
9.744,1.0,78.76886252411654
9.752,1.0,78.67691828979846
9.76,0.9999999999999999,78.58495175134476
9.768,0.9999999999999998,78.49296288715443
9.776,0.9999999999999998,78.40095167560413
9.784,1.0,78.30891809504809
9.792,0.9999999999999999,78.21686212381816
9.8,0.9999999999999998,78.12478374022359
9.808,1.0,78.03268292255113
9.816,0.9999999999999999,77.94055964906484
9.824,0.9999999999999999,77.84841389800616
9.832,1.0,77.7562456475937
9.84,0.9999999999999999,77.66405487602339
9.847999999999999,1.0,77.57184156146825
9.856,0.9999999999999999,77.47960568207849
9.864,1.0,77.38734721598132
9.872,0.9999999999999999,77.29506614128114
9.879999999999999,1.0,77.20276243605923
9.888,1.0,77.11043607837391
9.896,1.0,77.01808704626049
9.904,1.0,76.9257153177312
9.911999999999999,1.0,76.83332087077515
9.92,1.0,76.74090368335834
9.928,0.9999999999999999,76.6484637334237
9.936,1.0,76.55600099889102
9.943999999999999,1.0,76.46351545765694
9.952,0.9999999999999999,76.37100708759492
9.96,1.0,76.27847586655531
9.968,0.9999999999999999,76.18592177236539
9.975999999999999,0.9999999999999999,76.09334478282919
9.984,0.9999999999999999,76.00074487572766
9.992,1.0,75.90812202881871
10.0,0.9999999999999999,75.81547621983707
10.008,1.0,75.72280742649446
10.016,1.0,75.63011562647952
10.024000000000001,0.9999999999999999,75.53740079745795
10.032,1.0,75.44466291707245
10.04,1.0,75.35190196294276
10.048,1.0,75.25911791266574
10.056000000000001,1.0,75.16631074381546
10.064,1.0,75.07348043394319
10.072,1.0,74.98062696057747
10.08,0.9999999999999998,74.88775030122409
10.088000000000001,1.0,74.79485043336639
10.096,1.0,74.70192733446513
10.104,1.0,74.6089809819586
10.112,0.9999999999999999,74.5160113532627
10.120000000000001,1.0,74.42301842577112
10.128,0.9999999999999999,74.3300021768554
10.136,0.9999999999999999,74.23696258386487
10.144,1.0,74.14389962412695
10.152000000000001,1.0,74.05081327494715
10.16,1.0,73.95770351360929
10.168,0.9999999999999999,73.86457031737545
10.176,0.9999999999999999,73.77141366348626
10.184000000000001,0.9999999999999999,73.67823352916092
10.192,1.0,73.5850298915974
10.2,1.0,73.49180272797255
10.208,1.0,73.39855201544223
10.216000000000001,0.9999999999999999,73.30527773114152
10.224,1.0,73.21197985218483
10.232,1.0,73.11865835566607
10.24,1.0000000000000002,73.02531321865884
10.248000000000001,0.9999999999999999,72.93194441821657
10.256,1.0,72.83855193137282
10.264,1.0,72.74513573514126
10.272,0.9999999999999999,72.65169580651605
10.280000000000001,1.0,72.55823212247189
10.288,1.0,72.46474465996448
10.296,0.9999999999999999,72.37123339593043
10.304,0.9999999999999999,72.2776983072876
10.312000000000001,1.0,72.18413937093541
10.32,1.0,72.09055656375504
10.328,1.0,71.9969498626095
10.336,1.0,71.90331924434412
10.344000000000001,0.9999999999999999,71.80966468578663
10.352,1.0,71.71598616374757
10.36,1.0,71.62228365502038
10.368,1.0,71.52855713638179
10.376000000000001,1.0,71.43480658459204
10.384,0.9999999999999999,71.34103197639529
10.392,1.0,71.24723328851971
10.4,0.9999999999999999,71.15341049767791
10.408000000000001,0.9999999999999999,71.05956358056729
10.416,1.0,70.96569251387024
10.424,1.0,70.87179727425448
10.432,1.0,70.77787783837339
10.440000000000001,0.9999999999999999,70.68393418286648
10.448,0.9999999999999999,70.58996628435952
10.456,1.0,70.49597411946499
10.464,0.9999999999999999,70.40195766478242
