freq,mag,phase
6.0,0.9999901338118388,-126.3486892163447
6.008,0.9999928346277018,-126.7686666312826
6.016,0.9999954430851835,-127.18852932079093
6.024,0.9999979608465519,-127.6082772482846
6.032,1.0,-128.02791038594896
6.04,1.0,-128.44742871468895
6.048,1.0,-128.86683222407814
6.056,0.9999999999999999,-129.28612091230718
6.064,1.0,-129.70529478613258
6.072,0.9999999999999999,-130.12435386082475
6.08,1.0,-130.54329816011645
6.088,1.0,-130.96212771615055
6.096,1.0,-131.3808425694279
6.104,0.9999999999999998,-131.79944276875491
6.112,1.0,-132.21792837119122
6.12,1.0,-132.63629944199684
6.128,0.9999999999999999,-133.05455605457942
6.136,1.0,-133.47269829044143
6.144,1.0,-133.89072623912702
6.152,1.0,-134.30863999816876
6.16,0.9999999999999999,-134.72643967303455
6.168,0.9999999999999999,-135.14412537707398
6.176,0.9999999999999999,-135.56169723146516
6.184,1.0,-135.97915536516066
6.192,1.0,-136.3964999148344
6.2,0.9999999999999999,-136.81373102482726
6.208,1.0,-137.23084884709374
6.216,1.0,-137.64785354114773
6.224,1.0,-138.0647452740086
6.232,1.0,-138.48152422014718
6.24,1.0,-138.89819056143173
6.248,1.0,-139.3147444870735
6.256,1.0,-139.7311861935728
6.264,1.0000000000000002,-140.14751588466459
6.272,0.9999999999999999,-140.56373377126422
6.28,1.0,-140.97984007141318
6.288,0.9999999999999999,-141.39583501022483
6.296,1.0000000000000002,-141.8117188198296
6.304,1.0,-142.22749173932135
6.312,1.0,-142.6431540147022
6.32,0.9999999999999999,-143.05870589882863
6.328,1.0,-143.47414765135707
6.336,0.9999999999999999,-143.88947953868924
6.344,1.0,-144.3047018339179
6.352,0.9999999999999999,-144.71981481677258
6.36,1.0,-145.13481877356514
6.368,1.0,-145.54971399713534
6.376,1.0,-145.96450078679663
6.384,1.0,-146.37917944828192
6.392,0.9999999999999999,-146.7937502936892
6.4,1.0,-147.2082136414275
6.408,0.9999999999999999,-147.62256981616244
6.416,1.0,-148.03681914876248
6.424,1.0,-148.45096197624449
6.432,0.9999999999999999,-148.86499864171998
6.44,1.0,-149.2789294943411
6.448,0.9999999999999999,-149.69275488924654
6.456,0.9999999999999999,-150.10647518750804
6.464,0.9999999999999999,-150.5200907560762
6.472,0.9999999999999999,-150.9336019677271
6.48,1.0,-151.34700920100863
6.4879999999999995,1.0,-151.76031284018686
6.496,0.9999999999999999,-152.1735132751926
6.504,1.0,-152.5866109015678
6.5120000000000005,1.0,-152.99960612041295
6.52,1.0,-153.41249933833285
6.5280000000000005,1.0,-153.82529096738446
6.536,1.0000000000000002,-154.23798142502326
6.5440000000000005,1.0,-154.65057113405075
6.552,1.0,-155.06306052256105
6.5600000000000005,1.0,-155.47545002388904
6.568,0.9999999999999998,-155.8877400765569
6.5760000000000005,0.9999999999999998,-156.29993112422233
6.584,1.0,-156.7120236156255
6.592,1.0,-157.1240180045375
6.6,1.0,-157.53591474970767
6.608,0.9999999999999999,-157.94771431481166
6.616,0.9999999999999999,-158.35941716839963
6.624,0.9999999999999999,-158.77102378384458
6.632,0.9999999999999999,-159.18253463929037
6.64,1.0,-159.59395021760045
6.648,0.9999999999999999,-160.00527100630646
6.656,1.0,-160.4164974975568
6.664,1.0,-160.82763018806568
6.672,1.0,-161.23866957906196
6.68,1.0,-161.64961617623854
6.688,1.0,-162.06047048970143
6.696,0.9999999999999999,-162.47123303391925
6.704,0.9999999999999999,-162.8819043276728
6.712,1.0,-163.29248489400487
6.72,1.0,-163.70297526016995
6.728,1.0,-164.11337595758437
6.736,0.9999999999999999,-164.52368752177642
6.744,1.0,-164.93391049233674
6.752,1.0,-165.3440454128686
6.76,1.0,-165.75409283093876
6.768,1.0,-166.16405329802808
6.776,0.9999999999999999,-166.57392736948262
6.784,1.0000000000000002,-166.98371560446458
6.792,0.9999999999999999,-167.3934185659036
6.8,1.0,-167.80303682044823
6.808,0.9999999999999999,-168.21257093841749
6.816,1.0,-168.62202149375253
6.824,0.9999999999999999,-169.03138906396876
6.832,0.9999999999999998,-169.44067423010753
6.84,1.0,-169.84987757668884
6.848,1.0,-170.25899969166332
6.856,0.9999999999999999,-170.66804116636501
6.864,1.0,-171.07700259546417
6.872,0.9999999999999999,-171.48588457691991
6.88,1.0,-171.8946877119335
6.888,0.9999999999999999,-172.30341260490155
6.896,1.0,-172.71205986336943
6.904,1.0,-173.1206300979848
6.912,0.9999998141028899,-173.52912392245133
6.92,0.9999990810802712,-173.93754195348285
6.928,0.999998353362074,-174.34588481075718
6.936,0.9999976311735241,-174.75415311687055
6.944,0.9999969147325966,-175.16234749729205
6.952,0.9999962042501109,-175.57046858031813
6.96,0.9999954999298273,-175.97851699702758
6.968,0.9999948019685398,-176.38649338123628
6.976,0.9999941105561726,-176.79439836945252
6.984,0.9999934258758728,-177.20223260083228
6.992,0.9999927481041044,-177.60999671713452
7.0,0.9999920774107419,-178.01769136267728
7.008,0.9999914139591644,-178.425317184293
7.016,0.999990757906346,-178.8328748312849
7.024,0.9999901094029483,-179.2403649553831
7.032,0.999989468593415,-179.6477882107008
7.04,0.9999888356160598,179.9448547463089
7.048,0.9999882106031581,179.5375632568965
7.056,0.9999875936810395,179.13033666005913
7.064,0.999986984970176,178.72317429258345
7.072,0.9999863845852704,178.31607548908855
7.08,0.9999857926353501,177.90903958206837
7.088,0.9999852092238493,177.50206590193417
7.096,0.9999846344487034,177.09515377705682
7.104,0.9999840684024325,176.68830253380884
7.112,0.9999835111722306,176.28151149660624
7.12,0.9999829628400513,175.87477998795032
7.128,0.9999824234826952,175.46810732846913
7.136,0.9999818931718957,175.0614928369589
7.144,0.999981371974403,174.6549358304253
7.152,0.9999808599520693,174.24843562412426
7.16,0.9999803571619343,173.841991531603
7.168,0.9999798636563081,173.43560286474082
7.176,0.9999793794828528,173.02926893378927
7.184,0.999978904684668,172.62298904741274
7.192,0.9999784393003728,172.21676251272876
7.2,0.9999779833641836,171.81058863534764
7.208,0.9999775369060001,171.4044667194126
7.216,0.9999770999514823,170.9983960676393
7.224,0.9999766725221327,170.59237598135545
7.232,0.9999762546353752,170.18640576054
7.24,0.9999758463046324,169.78048470386247
7.248,0.9999754475394061,169.37461210872186
7.256,0.9999750583453538,168.9687872712854
7.264,0.9999746787243661,168.56300948652748
7.272,0.999974308674644,168.15727804826787
7.28,0.9999739481907731,167.75159224921032
7.288,0.9999735972638025,167.3459513809805
7.296,0.9999732558813146,166.94035473416415
7.304,0.999972924027505,166.53480159834507
7.312,0.9999726016832522,166.12929126214254
7.32,0.9999722888261913,165.72382301324916
7.328,0.9999719854307889,165.3183961384678
7.336,0.999971691468412,164.91300992374937
7.344,0.9999714069074017,164.5076636542295
7.352,0.9999711317131427,164.10235661426557
7.36,0.9999708658481333,163.6970880874735
7.368,0.9999706092720547,163.2918573567642
7.376,0.9999703619418423,162.88666370438023
7.384,0.9999701238117515,162.4815064119319
7.392,0.9999698948334258,162.07638476043354
7.4,0.9999696749559648,161.6712980303394
7.4079999999999995,0.9999694641259897,161.26624550157965
7.416,0.9999692622877105,160.8612264535956
7.4239999999999995,0.9999690693829891,160.45624016537602
7.432,0.9999688853514068,160.0512859154916
7.4399999999999995,0.9999687101303257,159.64636298213117
7.448,0.9999685436549544,159.24147064313584
7.4559999999999995,0.999968385858408,158.8366081760348
7.464,0.9999682366717738,158.43177485807928
7.4719999999999995,0.9999680960241698,158.02696996627813
7.48,0.9999679638428064,157.62219277743142
7.4879999999999995,0.9999678400530488,157.2174425681657
7.496,0.9999677245784735,156.8127186149673
7.504,0.9999676173409301,156.40802019421736
7.5120000000000005,0.9999675182605976,156.00334658222496
7.52,0.999967427256043,155.59869705526165
7.5280000000000005,0.9999673442442804,155.19407088959446
7.536,0.9999672691408233,154.78946736152002
7.5440000000000005,0.9999672018597457,154.38488574739753
7.552,0.9999671423137328,153.9803253236824
7.5600000000000005,0.9999670904141387,153.57578536695885
7.568,0.9999670460710401,153.17126515397376
7.5760000000000005,0.999967009193288,152.76676396166852
7.584,0.9999669796885617,152.3622810672127
7.5920000000000005,0.9999669574634225,151.95781574803596
7.6,0.9999669424233618,151.55336728186103
7.6080000000000005,0.999966934472856,151.1489349467356
7.616,0.9999669335154137,150.74451802106512
7.6240000000000006,0.999966939453627,150.34011578364417
7.632,0.9999669521892199,149.93572751368922
7.640000000000001,0.9999669716230984,149.53135249086978
7.648,0.9999669976553961,149.12698999534064
7.656000000000001,0.9999670301855216,148.72263930777305
7.664,0.9999670691122081,148.31829970938668
7.672,0.9999671143335556,147.9139704819804
7.68,0.9999671657470782,147.50965090796404
7.688,0.9999672232497502,147.10534027038915
7.696,0.9999672867380468,146.70103785298016
7.704,0.9999673561079909,146.29674294016536
7.712,0.9999674312551938,145.8924548171073
7.72,0.9999675120748996,145.48817276973386
7.728,0.9999675984620253,145.08389608476853
7.736,0.9999676903112024,144.67962404976083
7.744,0.9999677875168175,144.27535595311684
7.752,0.9999678899730523,143.87109108412903
7.76,0.9999679975739229,143.46682873300668
7.768,0.999968110213319,143.0625681909056
7.776,0.9999682277850402,142.65830874995825
7.784,0.9999683501828359,142.25404970330317
7.792,0.9999684773004408,141.84979034511488
7.8,0.9999686090316117,141.4455299706333
7.808,0.9999687452701626,141.0412678761932
7.816,0.9999688859100013,140.63700335925355
7.824,0.9999690308451623,140.23273571842668
7.832,0.9999691799698417,139.8284642535074
7.84,0.9999693331784305,139.424188265502
7.848,0.9999694903655472,139.01990705665733
7.856,0.9999696514260703,138.61561993048923
7.864,0.9999698162551701,138.2113261918116
7.872,0.9999699847483394,137.80702514676486
7.88,0.9999701568014234,137.4027161028443
7.888,0.9999703323106516,136.9983983689288
7.896,0.9999705111726647,136.59407125530882
7.904,0.9999706932845458,136.18973407371476
7.912,0.9999708785438467,135.7853861373451
7.92,0.9999710668486168,135.38102676089426
7.928,0.99997125809743,134.97665526058063
7.936,0.9999714521894101,134.5722709541744
7.944,0.999971649024259,134.16787316102517
7.952,0.99997184850228,133.76346120208964
7.96,0.9999720505244044,133.3590343999593
7.968,0.9999722549922148,132.9545920788875
7.976,0.9999724618079692,132.55013356481714
7.984,0.9999726708746244,132.14565818540785
7.992,0.9999728820958586,131.74116527006294
8.0,0.9999730953760939,131.33665414995681
8.008,0.9999733106205178,130.93212415806173
8.016,0.9999735277351038,130.52757462917458
8.024000000000001,0.9999737466266333,130.1230048999441
8.032,0.9999739672027143,129.7184143088973
8.04,0.9999741893718022,129.31380219646604
8.048,0.9999744130432174,128.90916790501353
8.056000000000001,0.9999746381271656,128.50451077886117
8.064,0.9999748645347545,128.09983016431465
8.072,0.9999750921780117,127.69512540969004
8.08,0.9999753209699017,127.2903958653401
8.088000000000001,0.9999755508243428,126.8856408836808
8.096,0.9999757816562227,126.48085981921675
8.104,0.9999760133814138,126.07605202856742
8.112,0.9999762459167889,125.6712168704928
8.120000000000001,0.9999764791802345,125.26635370591949
8.128,0.9999767130906668,124.86146189796622
8.136,0.9999769475680435,124.45654081196925
8.144,0.9999771825333772,124.05158981550801
8.152000000000001,0.999977417908749,123.64660827843068
8.16,0.9999776536173188,123.24159557287956
8.168,0.9999778895833394,122.83655107331582
8.176,0.9999781257321655,122.43147415654519
8.184000000000001,0.9999783619902649,122.02636420174298
8.192,0.9999785982852297,121.62122059047904
8.2,0.9999788345457853,121.2160427067425
8.208,0.9999790707017997,120.81082993696671
8.216000000000001,0.9999793066842925,120.4055816700543
8.224,0.9999795424254437,120.00029729740163
8.232,0.9999797778586014,119.5949762129232
8.24,0.9999800129182889,119.18961781307628
8.248000000000001,0.9999802475402126,118.78422149688573
8.256,0.999980481661268,118.37878666596795
8.264,0.9999807152195467,117.97331272455504
8.272,0.9999809481543415,117.5677990795193
8.280000000000001,0.9999811804061521,117.16224514039733
8.288,0.99998141191669,116.75665031941392
8.296,0.9999816426288832,116.35101403150591
8.304,0.9999818724868799,115.9453356943462
8.312,0.9999821014360532,115.53961472836765
8.32,0.9999823294230028,115.13385055678634
8.328,0.9999825563955602,114.72804260562579
8.336,0.9999827823027887,114.32219030373982
8.344,0.9999830070949876,113.91629308283672
8.352,0.9999832307236926,113.51035037750182
8.36,0.999983453141678,113.10436162522161
8.368,0.999983674302957,112.69832626640611
8.376,0.9999838941627831,112.29224374441279
8.384,0.9999841126776489,111.88611350556876
8.392,0.9999843298052877,111.47993499919463
8.4,0.9999845455046719,111.07370767762644
8.408,0.9999847597360125,110.66743099623932
8.416,0.9999849724607571,110.26110441346933
8.424,0.9999851836415893,109.8547273908369
8.432,0.999985393242426,109.4482993929686
8.44,0.9999856012284157,109.04181988762016
8.448,0.9999858075659357,108.63528834569836
8.456,0.9999860122225877,108.22870424128376
8.464,0.9999862151671973,107.82206705165228
8.472,0.9999864163698077,107.415376257298
8.48,0.9999866158016768,107.00863134195437
8.488,0.9999868134352732,106.60183179261688
8.496,0.9999870092442703,106.19497709956421
8.504,0.9999872032035427,105.78806675638053
8.512,0.9999873952891599,105.38110025997662
8.52,0.9999875854783818,104.97407711061189
8.528,0.9999877737496522,104.56699681191536
8.536,0.9999879600825914,104.15985887090758
8.544,0.9999881444579919,103.75266279802118
8.552,0.99998832685781,103.34540810712288
8.56,0.9999885072651596,102.93809431553373
8.568,0.9999886856643044,102.53072094405088
8.576,0.9999888620406502,102.12328751696771
8.584,0.9999890363807371,101.71579356209534
8.592,0.9999892086722315,101.3082386107827
8.6,0.9999893789039174,100.90062219793764
8.608,0.999989547065687,100.49294386204697
8.616,0.9999897131485336,100.0852031451974
8.624,0.9999898771445404,99.67739959309509
8.632,0.9999900390468712,99.26953275508674
8.64,0.9999901988497627,98.8616021841788
8.648,0.9999903565485115,98.45360743705827
8.656,0.9999905121394655,98.04554807411185
8.664,0.9999906656200144,97.63742365944638
8.672,0.9999908169885764,97.22923376090792
8.68,0.9999909662445894,96.82097795010189
8.688,0.9999911133884989,96.41265580241196
8.696,0.9999912584217472,96.00426689702002
8.704,0.9999914013467609,95.59581081692475
8.712,0.9999915421669403,95.18728714896143
8.72,0.9999916808866459,94.77869548382034
8.728,0.9999918175111874,94.37003541606626
8.736,0.9999919520468113,93.96130654415664
8.744,0.9999920845006874,93.55250847046094
8.752,0.9999922148808961,93.14364080127851
8.76,0.9999923431964172,92.7347031468578
8.768,0.9999924694571132,92.32569512141383
8.776,0.9999925936737204,91.91661634314727
8.784,0.9999927158578309,91.50746643426173
8.792,0.9999928360218829,91.09824502098246
8.8,0.9999929541791441,90.6889517335735
8.808,0.9999930703436989,90.27958620635607
8.815999999999999,0.9999931845304334,89.87014807772556
8.824,0.999993296755023,89.46063699016932
8.832,0.9999934070339148,89.05105259028406
8.84,0.9999935153843165,88.64139452879303
8.847999999999999,0.9999936218241788,88.23166246056279
8.856,0.9999937263721824,87.82185604462043
8.864,0.9999938290477219,87.4119749441705
8.872,0.9999939298708911,87.00201882661156
8.879999999999999,0.9999940288624678,86.59198736355255
8.888,0.9999941260438984,86.1818802308293
8.896,0.9999942214372824,85.77169710852107
8.904,0.9999943150653563,85.36143768096647
8.911999999999999,0.9999944069514792,84.95110163677928
8.92,0.9999944971196155,84.54068866886445
8.928,0.9999945855943205,84.13019847443397
8.936,0.9999946724007224,83.71963075502231
8.943999999999999,0.9999947575645088,83.3089852165016
8.952,0.9999948411119086,82.89826156909704
8.96,0.999994923069677,82.48745952740234
8.968,0.9999950034650775,82.07657881039427
8.975999999999999,0.9999950823258679,81.66561914144748
8.984,0.9999951596802822,81.25458024834926
8.992,0.9999952355570143,80.84346186331416
9.0,0.9999953099852026,80.4322637229983
9.008,0.9999953829944112,80.0209855685132
9.016,0.9999954546146161,79.60962714544004
9.024000000000001,0.9999955248761861,79.1981882038438
9.032,0.9999955938098675,78.78666849828656
9.04,0.9999956614467662,78.37506778784106
9.048,0.9999957278183323,77.96338583610411
9.056000000000001,0.9999957929563426,77.55162241120998
9.064,0.9999958568928827,77.13977728584324
9.072,0.999995919660333,76.72785023725152
9.08,0.9999959812913477,76.31584104725822
9.088000000000001,0.9999960418188427,75.90374950227525
9.096,0.9999961012759745,75.49157539331522
9.104,0.9999961596961262,75.07931851600335
9.112,0.9999962171128887,74.66697867058959
9.120000000000001,0.9999962735600453,74.25455566196065
9.128,0.999996329071554,73.84204929965135
9.136,0.9999963836815312,73.42945939785594
9.144,0.9999964374242342,73.01678577543937
9.152000000000001,0.9999964903340447,72.60402825594863
9.16,0.9999965424454529,72.19118666762337
9.168,0.9999965937930395,71.77826084340636
9.176,0.9999966444114597,71.36525062095411
9.184000000000001,0.9999966943354259,70.9521558426474
9.192,0.9999967435996925,70.5389763556011
9.2,0.9999967922390379,70.12571201167377
9.208,0.9999968402882488,69.71236266747773
9.216000000000001,0.999996887782103,69.29892818438853
9.224,0.9999969347553542,68.885408428554
9.232,0.9999969812427154,68.47180327090331
9.24,0.9999970272788405,68.05811258715576
9.248000000000001,0.9999970728983125,67.64433625782978
9.256,0.999997118135623,67.2304741682511
9.264,0.9999971630251588,66.81652620856079
9.272,0.9999972076011852,66.40249227372335
9.280000000000001,0.9999972518978296,65.98837226353486
9.288,0.9999972959490675,65.57416608263014
9.296,0.9999973397887052,65.15987364049008
9.304,0.9999973834503645,64.74549485144884
9.312000000000001,0.9999974269674682,64.33102963470097
9.32,0.9999974703732238,63.916477914307826
9.328,0.9999975137006087,63.50183961920396
9.336,0.9999975569823554,63.08711468320338
9.344,0.9999976002509354,62.67230304500587
9.352,0.9999976435385469,62.257404648202076
9.36,0.9999976868770966,61.84241944127978
9.368,0.9999977302981876,61.427347377628415
9.376,0.9999977738331041,61.012188415544806
9.384,0.9999978175127978,60.596942518237334
9.392,0.9999978613678725,60.18160965383114
9.4,0.999997905428571,59.76618979537171
9.408,0.9999979497247606,59.35068292082975
9.416,0.9999979942859205,58.93508901310421
9.424,0.9999980391411273,58.51940806002657
9.432,0.9999980843190415,58.103640054363545
9.44,0.9999981298478947,57.68778499382078
9.448,0.9999981757554767,57.27184288104496
9.456,0.9999982220691217,56.855813723627165
9.464,0.999998268815697,56.4396975341044
9.472,0.999998316021589,56.02349432996235
9.48,0.9999983637126918,55.607204133636515
9.488,0.9999984119143946,55.190826972514415
9.496,0.9999984606515699,54.77436287893617
9.504,0.9999985099485617,54.35781189019611
9.512,0.9999985598291732,53.941174048543004
9.52,0.9999986103166568,53.52444940118101
9.528,0.9999986614337015,53.10763800026932
9.536,0.9999987132024225,52.69073990292273
9.544,0.999998765644351,52.27375517121061
9.552,0.9999988187804217,51.85668387215696
9.56,0.9999988726309645,51.43952607773881
9.568,0.9999989272156936,51.02228186488585
9.576,0.9999989825536966,50.604951315478075
9.584,0.9999990386634261,50.18753451634496
9.592,0.9999990955626902,49.7700315592626
9.6,0.9999991532686414,49.352442540952204
9.608,0.9999992117977692,48.934767563076726
9.616,0.9999992711658916,48.51700673223882
9.624,0.9999993313881449,48.09916015997686
9.632,0.9999993924789765,47.68122796276224
9.64,0.9999994544521359,47.26321026199501
9.648,0.9999995173206682,46.84510718400039
9.656,0.9999995810969048,46.426918860023896
9.664,0.9999996457924571,46.00864542622743
9.672,0.9999997114182093,45.5902870236835
9.68,0.9999997779843111,45.17184379837094
9.688,0.99999984550017,44.753315901168556
9.696,0.9999999139744472,44.334703487850064
9.704,0.9999999834150504,43.91600671907732
9.712,1.0,43.49722576039456
9.72,1.0,43.07836078222101
9.728,1.0,42.65941195984468
9.736,1.0,42.24037947341413
9.744,1.0000000000000002,41.821263507931754
9.752,1.0,41.402064253245065
9.76,1.0,40.98278190403915
