freq,mag,phase
6.0,0.9999977797047971,-145.4688890712982
6.008,0.9999984029732774,-145.7978748099529
6.016,0.9999990022448596,-146.12640371957903
6.024,0.9999995780004965,-146.45448003919955
6.032,0.9999999999999999,-146.7821080048554
6.04,0.9999999999999999,-147.1092918495276
6.048,1.0,-147.4360358030627
6.056,1.0,-147.76234409210136
6.064,0.9999999999999999,-148.08822094001022
6.072,1.0,-148.4136705668171
6.08,1.0,-148.73869718914918
6.088,1.0,-149.0633050201742
6.096,0.9999999999999999,-149.38749826954478
6.104,0.9999999999999999,-149.7112811433459
6.112,1.0,-150.03465784404477
6.12,0.9999999999999999,-150.35763257044422
6.128,1.0,-150.68020951763862
6.136,1.0,-151.0023928769724
6.144,1.0,-151.32418683600176
6.152,1.0,-151.64559557845877
6.16,0.9999999999999999,-151.96662328421814
6.168,1.0,-152.2872741292668
6.176,0.9999999999999999,-152.60755228567567
6.184,0.9999999999999999,-152.92746192157455
6.192,1.0,-153.24700720112878
6.2,1.0,-153.566192284519
6.208,1.0,-153.88502132792266
6.216,1.0,-154.20349848349875
6.224,1.0,-154.5216278993738
6.232,0.9999999999999999,-154.83941371963098
6.24,0.9999999999999999,-155.15686008430106
6.248,1.0,-155.47397112935568
6.256,1.0,-155.79075098670285
6.264,0.9999999999999999,-156.10720378418424
6.272,1.0,-156.42333364557504
6.28,0.9999999999999999,-156.73914469058548
6.288,1.0,-157.0546410348646
6.296,1.0,-157.3698267900058
6.304,0.9999999999999999,-157.68470606355444
6.312,1.0,-157.9992829590175
6.32,0.9999999999999999,-158.31356157587467
6.328,0.9999999999999999,-158.62754600959187
6.336,1.0,-158.94124035163597
6.344,1.0,-159.25464868949175
6.352,1.0,-159.56777510668033
6.36,0.9999999999999998,-159.88062368277946
6.368,0.9999999999999999,-160.19319849344535
6.376,0.9999999999999999,-160.50550361043622
6.384,1.0,-160.8175431016374
6.392,0.9999999999999999,-161.12932103108827
6.4,1.0,-161.44084145901016
6.408,0.9999999999999999,-161.75210844183655
6.416,1.0,-162.0631260322441
6.424,0.9999999999999999,-162.3738982791854
6.432,1.0,-162.68442922792332
6.44,1.0,-162.99472292006647
6.448,1.0,-163.30478339360621
6.456,0.9999999999999999,-163.61461468295494
6.464,1.0,-163.9242208189858
6.472,0.9999999999999999,-164.23360582907353
6.48,1.0,-164.54277373713668
6.4879999999999995,1.0,-164.8517285636812
6.496,0.9999999999999999,-165.16047432584503
6.504,1.0,-165.46901503744374
6.5120000000000005,0.9999999999999999,-165.77735470901806
6.52,1.0,-166.08549734788153
6.5280000000000005,1.0,-166.39344695817024
6.536,0.9999999999999999,-166.70120754089285
6.5440000000000005,0.9999999999999999,-167.0087830939825
6.552,1.0,-167.3161776123487
6.5600000000000005,1.0000000000000002,-167.6233950879317
6.568,0.9999999999999999,-167.93043950975616
6.5760000000000005,1.0,-168.2373148639875
6.584,0.9999999999999999,-168.54402513398762
6.592,1.0,-168.85057430037307
6.6,1.0,-169.15696634107277
6.608,1.0,-169.46320523138775
6.616,1.0,-169.7692949440508
6.624,1.0,-170.0752394492879
6.632,0.9999999999999999,-170.38104271487958
6.64,0.9999999999999999,-170.686708706224
6.648,0.9999999999999998,-170.9922413863999
6.656,0.9999999999999999,-171.29764471623113
6.664,0.9999999999999999,-171.60292265435132
6.672,1.0,-171.90807915726978
6.68,0.9999999999999999,-172.2131181794378
6.688,1.0,-172.5180436733156
6.696,0.9999999999999999,-172.8228595894403
6.704,1.0,-173.1275698764942
6.712,1.0,-173.43217848137388
6.72,0.9999999999999999,-173.73668934925993
6.728,0.9999997945590249,-174.04110642368715
6.736,0.9999995586337093,-174.34543364661548
6.744,0.9999993223800174,-174.64967495850144
6.752,0.9999990858999666,-174.95383429837014
6.76,0.9999988492933541,-175.25791560388785
6.768,0.9999986126577856,-175.56192281143493
6.776,0.9999983760887047,-175.86585985617953
6.784,0.9999981396794236,-176.1697306721516
6.792,0.9999979035211529,-176.4735391923173
6.8,0.9999976677030276,-176.77728934865414
6.808,0.9999974323121386,-177.0809850722262
6.816,0.9999971974335605,-177.38463029326016
6.824,0.9999969631503787,-177.6882289412213
6.832,0.9999967295437157,-177.99178494489027
6.84,0.9999964966927619,-178.29530223244
6.848,0.9999962646748002,-178.59878473151315
6.856,0.9999960335652313,-178.90223636929966
6.864,0.9999958034376036,-179.20566107261484
6.872,0.9999955743636374,-179.50906276797772
6.88,0.9999953464132493,-179.81244538168957
6.888,0.9999951196545807,179.88418716008712
6.896,0.9999948941540191,179.58083093124952
6.904,0.9999946699762281,179.27748200567495
6.912,0.9999944471841663,178.97413645714147
6.92,0.9999942258391153,178.67079035924766
6.928,0.999994006000702,178.3674397853329
6.936,0.9999937877269242,178.0640808083969
6.944,0.9999935710741714,177.7607095010193
6.952,0.9999933560972505,177.45732193527914
6.96,0.9999931428494063,177.15391418267401
6.968,0.9999929313823469,176.8504823140393
6.976,0.999992721746262,176.5470223994671
6.984,0.9999925139898502,176.24353050822515
6.992,0.9999923081603354,175.94000270867576
7.0,0.9999921043034928,175.6364350681944
7.008,0.9999919024636673,175.3328236530885
7.016,0.9999917026837954,175.02916452851605
7.024,0.9999915050054272,174.7254537584044
7.032,0.9999913094687456,174.42168740536852
7.04,0.9999911161125854,174.11786153062994
7.048,0.9999909249744569,173.81397219393529
7.056,0.9999907360905618,173.51001545347492
7.064,0.999990549495815,173.20598736580163
7.072,0.9999903652238636,172.90188398574946
7.08,0.9999901833071078,172.5977013663526
7.088,0.9999900037767125,172.29343555876414
7.096,0.9999898266626367,171.9890826121754
7.104,0.9999896519936426,171.68463857373487
7.112,0.9999894797973208,171.38009948846764
7.12,0.9999893101001013,171.07546139919484
7.128,0.9999891429272778,170.77072034645326
7.136,0.9999889783030207,170.4658723684152
7.144,0.9999888162503974,170.16091350080845
7.152,0.9999886567913862,169.8558397768366
7.16,0.9999884999468963,169.55064722709932
7.168,0.9999883457367826,169.24533187951334
7.176,0.999988194179863,168.93988975923327
7.184,0.9999880452939333,168.63431688857284
7.192,0.9999878990957857,168.32860928692654
7.2,0.9999877556012225,168.02276297069147
7.208,0.999987614825072,167.7167739531895
7.216,0.9999874767812058,167.41063824458973
7.224,0.9999873414825512,167.10435185183175
7.232,0.9999872089411089,166.7979107785485
7.24,0.9999870791679664,166.49131102499024
7.248,0.9999869521733139,166.18454858794854
7.256,0.999986827966456,165.87761946068088
7.264,0.9999867065558307,165.57051963283558
7.272,0.9999865879490186,165.2632450903773
7.28,0.999986472152762,164.95579181551312
7.288,0.9999863591729734,164.64815578661864
7.296,0.999986249014753,164.34033297816538
7.304,0.9999861416824003,164.0323193606481
7.312,0.9999860371794304,163.72411090051287
7.32,0.9999859355085805,163.41570356008577
7.328,0.9999858366718316,163.1070932975023
7.336,0.9999857406704139,162.79827606663707
7.344,0.9999856475048238,162.48924781703454
7.352,0.9999855571748353,162.18000449384007
7.36,0.9999854696795111,161.87054203773192
7.368,0.999985385017217,161.56085638485385
7.376,0.9999853031856317,161.25094346674828
7.384,0.999985224181761,160.9407992102907
7.392,0.9999851480019469,160.63041953762414
7.4,0.9999850746418825,160.31980036609497
7.4079999999999995,0.9999850040966197,160.00893760818954
7.416,0.9999849363605845,159.69782717147103
7.4239999999999995,0.9999848714275834,159.38646495851805
7.432,0.9999848092908199,159.0748468668633
7.4399999999999995,0.9999847499429008,158.76296878893393
7.448,0.9999846933758495,158.45082661199177
7.4559999999999995,0.9999846395811165,158.13841621807597
7.464,0.999984588549588,157.82573348394507
7.4719999999999995,0.9999845402715992,157.51277428102142
7.48,0.9999844947369414,157.19953447533527
7.4879999999999995,0.9999844519348758,156.88600992747178
7.496,0.9999844118541393,156.57219649251667
7.504,0.9999843744829575,156.2580900200056
7.5120000000000005,0.9999843398090534,155.94368635387232
7.52,0.999984307819657,155.62898133240003
7.5280000000000005,0.9999842785015147,155.31397078817207
7.536,0.9999842518409002,154.9986505480255
7.5440000000000005,0.9999842278236201,154.6830164330044
7.552,0.9999842064350277,154.36706425831622
7.5600000000000005,0.9999841876600286,154.05078983328718
7.568,0.9999841714830912,153.73418896132145
7.5760000000000005,0.9999841578882551,153.41725743985958
7.584,0.9999841468591412,153.09999106033987
7.5920000000000005,0.9999841383789566,152.7823856081601
7.6,0.9999841324305084,152.46443686264163
7.6080000000000005,0.9999841289962073,152.14614059699403
7.616,0.9999841280580798,151.8274925782823
7.6240000000000006,0.9999841295977729,151.50848856739452
7.632,0.9999841335965648,151.18912431901214
7.640000000000001,0.9999841400353727,150.86939558158113
7.648,0.9999841488947587,150.54929809728537
7.656000000000001,0.9999841601549414,150.22882760202114
7.664,0.9999841737957985,149.907979825374
7.672,0.9999841897968799,149.58675049059673
7.68,0.9999842081374114,149.26513531458977
7.688,0.9999842287963037,148.94313000788307
7.696,0.9999842517521597,148.62073027462
7.704,0.9999842769832821,148.29793181254303
7.712,0.9999843044676798,147.9747303129814
7.72,0.9999843341830763,147.65112146084118
7.728,0.9999843661069148,147.32710093459667
7.736,0.9999844002163676,147.00266440628448
7.744,0.9999844364883415,146.6778075414994
7.752,0.9999844748994845,146.3525259993926
7.76,0.9999845154261939,146.02681543267204
7.768,0.9999845580446216,145.70067148760484
7.776,0.9999846027306815,145.37408980402247
7.784,0.9999846494600558,145.0470660153278
7.792,0.999984698208201,144.71959574850476
7.8,0.9999847489503562,144.39167462413036
7.808,0.9999848016615464,144.06329825638926
7.816,0.9999848563165914,143.7344622530908
7.824,0.9999849128901108,143.40516221568865
7.832,0.9999849713565305,143.0753937393029
7.84,0.9999850316900886,142.74515241274517
7.848,0.9999850938648411,142.41443381854606
7.856,0.9999851578546689,142.0832335329856
7.864,0.9999852236332825,141.75154712612638
7.872,0.9999852911742284,141.41937016184988
7.88,0.9999853604508956,141.0866981978951
7.888,0.9999854314365195,140.75352678590065
7.896,0.9999855041041894,140.41985147145002
7.904,0.9999855784268525,140.0856677941193
7.912,0.9999856543773213,139.75097128752847
7.92,0.9999857319282778,139.415757479396
7.928,0.999985811052279,139.08002189159632
7.936,0.9999858917217626,138.74376004022088
7.944,0.9999859739090524,138.40696743564243
7.952,0.9999860575863636,138.0696395825828
7.96,0.999986142725808,137.73177198018416
7.968,0.9999862292993992,137.39336012208375
7.976,0.9999863172790577,137.0543994964923
7.984,0.9999864066366162,136.71488558627604
7.992,0.9999864973438247,136.37481386904255
8.0,0.9999865893723547,136.03417981723027
8.008,0.9999866826938059,135.69297889820186
8.016,0.9999867772797092,135.35120657434152
8.024000000000001,0.9999868731015334,135.00885830315653
8.032,0.9999869701306888,134.66592953738245
8.04,0.9999870683385328,134.3224157250924
8.048,0.999987167696374,133.978312309811
8.056000000000001,0.9999872681754775,133.63361473063222
8.064,0.9999873697470698,133.28831842234152
8.072,0.9999874723823428,132.94241881554245
8.08,0.9999875760524588,132.59591133678765
8.088000000000001,0.9999876807285555,132.24879140871468
8.096,0.9999877863817503,131.90105445018605
8.104,0.9999878929831445,131.55269587643386
8.112,0.9999880005038285,131.20371109920964
8.120000000000001,0.9999881089148857,130.85409552693878
8.128,0.9999882181873971,130.5038445648798
8.136,0.9999883282924469,130.15295361528828
8.144,0.9999884392011248,129.80141807758645
8.152000000000001,0.9999885508845319,129.44923334853763
8.16,0.9999886633137851,129.0963948224258
8.168,0.9999887764600206,128.74289789124012
8.176,0.9999888902943987,128.38873794486543
8.184000000000001,0.9999890047881086,128.03391037127793
8.192,0.9999891199123715,127.6784105567462
8.2,0.9999892356384457,127.32223388603767
8.208,0.9999893519376304,126.96537574263114
8.216000000000001,0.9999894687812713,126.60783150893515
8.224,0.999989586140762,126.24959656651146
8.232,0.9999897039875508,125.89066629630497
8.24,0.9999898222931441,125.53103607887947
8.248000000000001,0.9999899410291091,125.17070129465974
8.256,0.9999900601670806,124.8096573241794
8.264,0.9999901796787628,124.44789954833483
8.272,0.999990299535934,124.08542334864613
8.280000000000001,0.9999904197104518,123.72222410752384
8.288,0.9999905401742553,123.35829720854245
8.296,0.9999906608993703,122.99363803672018
8.304,0.9999907818579137,122.62824197880555
8.312,0.9999909030220961,122.26210442357122
8.32,0.9999910243642273,121.89522076211335
8.328,0.9999911458567189,121.52758638815955
8.336,0.99999126747209,121.15919669838199
8.344,0.9999913891829686,120.7900470927194
8.352,0.9999915109620986,120.4201329747045
8.36,0.9999916327823415,120.0494497518003
8.368,0.9999917546166811,119.67799283574217
8.376,0.9999918764382273,119.30575764288879
8.384,0.9999919982202202,118.93273959457933
8.392,0.9999921199360345,118.55893411749919
8.4,0.9999922415591814,118.18433664405255
8.408,0.9999923630633147,117.80894261274365
8.416,0.9999924844222343,117.43274746856476
8.424,0.9999926056098887,117.05574666339332
8.432,0.9999927266003799,116.67793565639577
8.44,0.9999928473679677,116.2993099144408
8.448,0.9999929678870721,115.91986491251942
8.456,0.9999930881322786,115.5395961341747
8.464,0.9999932080783415,115.15849907193832
8.472,0.999993327700187,114.77656922777716
8.48,0.9999934469729184,114.39380211354666
8.488,0.9999935658718182,114.01019325145455
8.496,0.9999936843723537,113.62573817453149
8.504,0.9999938024501798,113.24043242711204
8.512,0.9999939200811427,112.85427156532296
8.52,0.9999940372412838,112.4672511575818
8.528,0.999994153906844,112.07936678510309
8.536,0.9999942700542669,111.69061404241496
8.544,0.9999943856602027,111.30098853788337
8.552,0.9999945007015122,110.91048589424707
8.56,0.9999946151552696,110.51910174916031
8.568,0.9999947289987677,110.12683175574624
8.576,0.9999948422095213,109.7336715831584
8.584,0.9999949547652691,109.339616917153
8.592,0.9999950666439802,108.94466346066926
8.6,0.9999951778238562,108.54880693442084
8.608,0.9999952882833347,108.15204307749535
8.616,0.999995398001094,107.75436764796517
8.624,0.9999955069560565,107.35577642350636
8.632,0.9999956151273911,106.95626520202897
8.64,0.9999957224945191,106.55582980231571
8.648,0.9999958290371163,106.15446606467198
8.656,0.9999959347351165,105.7521698515843
8.664,0.9999960395687167,105.3489370483904
8.672,0.9999961435183795,104.94476356395764
8.68,0.9999962465648367,104.53964533137317
8.688,0.9999963486890928,104.13357830864258
8.696,0.9999964498724297,103.72655847940018
8.704,0.9999965500964096,103.31858185362816
8.712,0.9999966493428781,102.9096444683871
8.72,0.9999967475939686,102.49974238855549
8.728,0.9999968448321049,102.08887170758085
8.736,0.9999969410400061,101.67702854823963
8.744,0.9999970362006885,101.26420906340888
8.752,0.9999971302974706,100.85040943684669
8.76,0.9999972233139753,100.43562588398436
8.768,0.9999973152341344,100.01985465272743
8.776,0.9999974060421909,99.60309202426843
8.784,0.9999974957227039,99.18533431390837
8.792,0.999997584260551,98.76657787189005
8.8,0.9999976716409313,98.34681908424004
8.808,0.9999977578493701,97.92605437362235
8.815999999999999,0.9999978428717207,97.50428020020098
8.824,0.999997926694169,97.08149306251345
8.832,0.999998009303236,96.65768949835433
8.84,0.9999980906857812,96.23286608566863
8.847999999999999,0.9999981708290058,95.80701944345502
8.856,0.9999982497204564,95.38014623267941
8.864,0.9999983273480267,94.95224315719854
8.872,0.9999984036999627,94.52330696469302
8.879999999999999,0.9999984787648641,94.09333444760993
8.888,0.9999985525316883,93.6623224441158
8.896,0.9999986249897527,93.23026783905894
8.904,0.9999986961287376,92.79716756494098
8.911999999999999,0.9999987659386902,92.36301860289781
8.92,0.9999988344100268,91.92781798369033
8.928,0.9999989015335352,91.49156278870417
8.936,0.9999989673003781,91.05425015095824
8.943999999999999,0.9999990317020956,90.61587725612223
8.952,0.9999990947306081,90.1764413435433
8.96,0.9999991563782185,89.73593970728133
8.968,0.9999992166376154,89.29436969715253
8.975999999999999,0.9999992755018752,88.85172871978118
8.984,0.9999993329644641,88.40801423966013
8.992,0.9999993890192418,87.96322378021925
9.0,0.999999443660463,87.51735492490138
9.008,0.9999994968827791,87.07040531824585
9.016,0.9999995486812425,86.62237266697993
9.024000000000001,0.9999995990513053,86.17325474111762
9.032,0.9999996479888261,85.72304937506476
9.04,0.9999996954900665,85.27175446873144
9.048,0.9999997415516982,84.81936798865087
9.056000000000001,0.9999997861708014,84.36588796910495
9.064,0.9999998293448678,83.91131251325542
9.072,0.9999998710718025,83.45563979428076
9.08,0.9999999113499256,82.99886805651904
9.088000000000001,0.9999999501779726,82.54099561661626
9.096,0.9999999875550972,82.0820208646789
9.104,0.9999999999999999,81.62194226543149
9.112,1.0,81.16075835937868
9.120000000000001,1.0000000000000002,80.69846776397166
9.128,1.0,80.2350691747775
9.136,1.0,79.77056136665217
9.144,1.0,79.30494319491697
9.152000000000001,1.0,78.8382135965374
9.16,1.0,78.37037159130415
9.168,0.9999999999999999,77.9014162830159
9.176,1.0,77.43134686066408
9.184000000000001,1.0,76.96016259961858
9.192,0.9999999999999999,76.4878628628141
9.2,1.0,76.01444710193637
9.208,1.0,75.5399148586089
9.216000000000001,0.9999999999999999,75.06426576557904
9.224,1.0,74.58749954790254
9.232,1.0,74.10961602412661
9.24,1.0,73.63061510747137
9.248000000000001,1.0,73.15049680700885
9.256,0.9999999999999999,72.66926122883856
9.264,1.0,72.18690857725956
9.272,1.0,71.70343915593888
9.280000000000001,1.0,71.21885336907555
9.288,1.0,70.73315172255894
9.296,1.0,70.24633482512161
9.304,1.0,69.75840338948629
9.312000000000001,1.0,69.26935823350624
9.32,0.9999999999999999,68.77920028129765
9.328,1.0,68.28793056436433
9.336,1.0,67.79555022271413
9.344,1.0000000000000002,67.30206050596645
9.352,0.9999999999999999,66.80746277444895
9.36,0.9999999999999999,66.3117585002854
9.368,1.0,65.81494926847091
9.376,1.0,65.31703677793725
9.384,1.0,64.81802284260408
9.392,1.0,64.31790939241908
9.4,0.9999999999999999,63.81669847438267
9.408,1.0,63.31439225356028
9.416,1.0,62.81099301407778
9.424,1.0,62.306503160103254
9.432,0.9999999999999999,61.80092521681044
9.44,1.0,61.2942618313272
9.448,1.0,60.7865157736643
9.456,0.9999999999999999,60.277689937627585
9.464,1.0,59.76778734170938
9.472,0.9999999999999999,59.256811129961655
9.48,0.9999999999999999,58.74476457284695
9.488,1.0,58.231651068069844
9.496,0.9999999999999999,57.71747414138452
9.504,1.0,57.20223744738152
9.512,0.9999999999999999,56.68594477024913
9.52,0.9999999999999999,56.16860002451252
9.528,0.9999999945069475,55.65020725574606
9.536,0.9999999630477013,55.13077064126188
9.544,0.9999999307476424,54.6102944907702
9.552,0.9999998976280603,54.08878324701441
9.56,0.9999998637105135,53.566241486376526
9.568,0.9999998290168226,53.042673919455886
9.576,0.9999997935690622,52.51808539161679
9.584,0.9999997573895528,51.992480883508044
9.592,0.9999997205008523,51.46586551154974
9.6,0.9999996829257488,50.938244528390854
9.608,0.9999996446872514,50.409623323332575
9.616,0.999999605808581,49.88000742272079
9.624,0.999999566313162,49.3494024903033
9.632,0.9999995262246127,48.817814327554544
9.64,0.9999994855667378,48.28524887396387
9.648,0.9999994443635165,47.75171220728984
9.656,0.9999994026390947,47.21721054377684
9.664,0.9999993604177749,46.68175023833641
9.672,0.9999993177240061,46.14533778468954
9.68,0.999999274582373,45.60797981547259
9.688,0.9999992310175888,45.06968310230271
9.696,0.9999991870544808,44.530454555805946
9.704,0.9999991427179828,43.99030122560331
9.712,0.9999990980331237,43.449230300258805
9.72,0.9999990530250168,42.90724910718407
9.728,0.9999990077188488,42.36436511250371
9.736,0.9999989621398684,41.82058592087666
9.744,0.9999989163133765,41.27591927527677
9.752,0.9999988702647137,40.73037305672862
9.76,0.9999988240192496,40.1839552840017
9.768,0.9999987776023713,39.6366741132588
9.776,0.9999987310394716,39.088537837661846
9.784,0.9999986843559376,38.53955488693121
9.792,0.9999986375771394,37.98973382686172
