freq,mag,phase
6.0,0.9999913737163251,-160.39199509203019
6.008,0.9999900283632431,-160.8209703976386
6.016,0.9999887334457224,-161.2497612010212
6.024,0.9999874880128502,-161.67836944876566
6.032,0.9999862911235152,-162.10679709983424
6.04,0.9999851418463862,-162.5350461253807
6.048,0.9999840392598877,-162.96311850856875
6.056,0.9999829824521737,-163.39101624439112
6.064,0.9999819705211019,-163.81874133948972
6.072,0.999981002574205,-164.24629581197678
6.08,0.9999800777286629,-164.67368169125757
6.088,0.9999791951112728,-165.10090101785335
6.096,0.9999783538584193,-165.52795584322598
6.104,0.9999775531160405,-165.9548482296032
6.112,0.9999767920395983,-166.3815802498052
6.12,0.9999760697940419,-166.80815398707216
6.128,0.9999753855537767,-167.2345715348928
6.136,0.9999747385026256,-167.66083499683376
6.144,0.9999741278337966,-168.08694648637066
6.152,0.9999735527498397,-168.51290812671928
6.16,0.9999730124626186,-168.93872205066876
6.168,0.9999725061932624,-169.364390400415
6.176,0.9999720331721306,-169.78991532739542
6.184,0.9999715926387771,-170.21529899212496
6.192,0.9999711838419008,-170.64054356403273
6.2,0.9999708060393125,-171.0656512212999
6.208,0.9999704584978856,-171.49062415069852
6.216,0.9999701404935168,-171.91546454743133
6.224,0.9999698513110856,-172.34017461497282
6.232,0.9999695902444028,-172.76475656491075
6.24,0.999969356596175,-173.18921261678926
6.248,0.999969149677951,-173.6135449979526
6.256,0.9999689688100816,-174.03775594339012
6.264,0.9999688133216694,-174.46184769558153
6.272,0.9999686825505243,-174.88582250434447
6.28,0.9999685758431173,-175.30968262668176
6.288,0.9999684925545295,-175.73343032662996
6.296,0.9999684320484062,-176.15706787510942
6.304,0.9999683936969072,-176.58059754977458
6.312,0.9999683768806571,-177.00402163486547
6.32,0.9999683809886988,-177.42734242106042
6.328,0.9999684054184373,-177.8505622053292
6.336,0.9999684495755966,-178.27368329078735
6.344,0.999968512874166,-178.69670798655133
6.352,0.9999685947363429,-179.11963860759485
6.36,0.9999686945924965,-179.54247747460533
6.368,0.9999688118810977,-179.9652269138424
6.376,0.9999689460486828,179.61211074300394
6.384,0.9999690965497909,179.18953315895337
6.392,0.9999692628469152,178.7670379918751
6.4,0.9999694444104531,178.34462289462633
6.408,0.9999696407186442,177.92228551519042
6.416,0.9999698512575295,177.5000234968136
6.424,0.9999700755208856,177.07783447814157
6.432,0.9999703130101791,176.65571609335493
6.44,0.9999705632345108,176.23366597230336
6.448,0.9999708257105578,175.81168174064013
6.456,0.9999710999625238,175.3897610199549
6.464,0.9999713855220844,174.96790142790607
6.472,0.9999716819283294,174.54610057835234
6.48,0.9999719887277114,174.12435608148357
6.4879999999999995,0.9999723054739884,173.70266554395107
6.496,0.9999726317281701,173.2810265689967
6.504,0.9999729670584631,172.85943675658174
6.5120000000000005,0.999973311040214,172.43789370351487
6.52,0.9999736632558582,172.01639500357953
6.5280000000000005,0.9999740232948602,171.59493824766025
6.536,0.9999743907536588,171.1735210238691
6.5440000000000005,0.999974765235615,170.75214091767052
6.552,0.9999751463509536,170.33079551200632
6.5600000000000005,0.9999755337167112,169.90948238741956
6.568,0.9999759269566733,169.4881991221781
6.5760000000000005,0.9999763257013274,169.06694329239724
6.584,0.9999767295878028,168.64571247216213
6.592,0.999977138259816,168.2245042336493
6.6,0.9999775513676165,167.8033161472477
6.608,0.9999779685679271,167.38214578167938
6.616,0.9999783895238958,166.96099070411933
6.624,0.9999788139050343,166.53984848031493
6.632,0.9999792413871625,166.1187166747048
6.64,0.9999796716523595,165.6975928505374
6.648,0.9999801043889011,165.2764745699887
6.656,0.9999805392912091,164.85535939427967
6.664,0.9999809760597944,164.43424488379335
6.672,0.9999814144012015,164.01312859819114
6.68,0.9999818540279574,163.59200809652899
6.688,0.9999822946585116,163.17088093737283
6.696,0.999982736017183,162.74974467891383
6.704,0.9999831778341087,162.32859687908334
6.712,0.9999836198451841,161.9074350956667
6.72,0.9999840617920129,161.48625688641795
6.728,0.9999845034218497,161.06505980917274
6.736,0.9999849444875489,160.64384142196204
6.744,0.9999853847475072,160.22259928312465
6.752,0.9999858239656128,159.80133095142008
6.76,0.999986261911189,159.3800339861405
6.768,0.9999866983589432,158.95870594722268
6.776,0.9999871330889116,158.53734439535967
6.784,0.9999875658864068,158.1159468921121
6.792,0.9999879965419635,157.6945110000191
6.8,0.9999884248512868,157.27303428270906
6.808,0.9999888506151993,156.85151430501028
6.816,0.9999892736395872,156.4299486330611
6.824,0.9999896937353496,156.00833483441988
6.832,0.9999901107183443,155.58667047817502
6.84,0.9999905244093369,155.1649531350544
6.848,0.9999909346339491,154.74318037753477
6.856,0.9999913412226051,154.3213497799511
6.864,0.999991744010483,153.8994589186056
6.872,0.9999921428374602,153.47750537187653
6.88,0.9999925375480645,153.0554867203271
6.888,0.9999929279914224,152.63340054681404
6.896,0.9999933140212077,152.21124443659593
6.904,0.9999936954955922,151.7890159774419
6.912,0.9999940722771936,151.3667127597396
6.92,0.9999944442330267,150.94433237660365
6.928,0.9999948112344533,150.52187242398355
6.936,0.9999951731571315,150.0993305007719
6.944,0.999995529880967,149.6767042089123
6.952,0.9999958812900629,149.25399115350723
6.96,0.9999962272726723,148.83118894292613
6.968,0.9999965677211473,148.40829518891329
6.976,0.9999969025318912,147.9853075066956
6.984,0.9999972316053107,147.56222351509044
6.992,0.9999975548457659,147.1390408366138
7.0,0.9999978721615241,146.7157570975879
7.008,0.9999981834647107,146.2923699282493
7.016,0.999998488671263,145.86887696285697
7.024,0.9999987877008804,145.4452758398001
7.032,0.9999990804769795,145.0215642017065
7.04,0.9999993669266475,144.5977396955504
7.048,0.9999996469805926,144.1737999727611
7.056,0.9999999205731007,143.74974268933113
7.064,1.0,143.32556550592466
7.072,0.9999999999999999,142.90126608798622
7.08,1.0,142.4768421058493
7.088,1.0,142.05229123484514
7.096,1.0,141.6276111554118
7.104,1.0,141.20279955320325
7.112,1.0,140.7778541191985
7.12,0.9999999999999999,140.35277254981122
7.128,0.9999999999999999,139.92755254699935
7.136,0.9999999999999999,139.5021918183747
7.144,1.0,139.0766880773133
7.152,1.0,138.65103904306517
7.16,1.0,138.2252424408652
7.168,0.9999999999999999,137.79929600204332
7.176,1.0,137.37319746413567
7.184,0.9999999999999999,136.9469445709957
7.192,1.0,136.52053507290526
7.2,1.0,136.09396672668643
7.208,1.0,135.66723729581318
7.216,1.0,135.2403445505237
7.224,1.0,134.81328626793257
7.232,1.0,134.38606023214345
7.24,1.0000000000000002,133.95866423436215
7.248,0.9999999999999999,133.53109607300976
7.256,0.9999999999999999,133.1033535538362
7.264,0.9999999999999999,132.6754344900341
7.272,1.0,132.24733670235284
7.28,0.9999999999999998,131.81905801921326
7.288,0.9999999999999999,131.3905962768221
7.296,1.0,130.96194931928736
7.304,1.0,130.53311499873368
7.312,1.0000000000000002,130.10409117541818
7.32,1.0,129.67487571784648
7.328,1.0,129.24546650288923
7.336,0.9999999999999999,128.8158614158989
7.344,0.9999999999999998,128.38605835082714
7.352,0.9999999999999999,127.95605521034197
7.36,0.9999999999999998,127.52584990594602
7.368,1.0,127.0954403580947
7.376,1.0,126.66482449631475
7.384,1.0,126.2340002593233
7.392,1.0,125.80296559514738
7.4,1.0,125.37171846124357
7.4079999999999995,1.0,124.94025682461815
7.416,1.0,124.50857866194764
7.4239999999999995,1.0,124.07668195969995
7.432,1.0,123.64456471425525
7.4399999999999995,1.0,123.21222493202822
7.448,1.0000000000000002,122.77966062958953
7.4559999999999995,1.0,122.34686983378899
7.464,1.0,121.91385058187778
7.4719999999999995,0.9999999999999999,121.48060092163234
7.48,0.9999999999999999,121.04711891147741
7.4879999999999995,1.0,120.61340262061074
7.496,1.0,120.17945012912688
7.504,0.9999999999999999,119.74525952814273
7.5120000000000005,0.9999999999999999,119.310828919922
7.52,0.9999999999999999,118.87615641800167
7.5280000000000005,0.9999999999999999,118.44124014731722
7.536,0.9999999999999999,118.00607824432967
7.5440000000000005,1.0,117.57066885715186
7.552,0.9999999999999999,117.13501014567623
7.5600000000000005,0.9999999999999999,116.69910028170158
7.568,0.9999999999999999,116.26293744906187
7.5760000000000005,1.0,115.82651984375376
7.584,1.0,115.389845674066
7.5920000000000005,1.0,114.95291316070775
7.6,0.9999999999999999,114.51572053693882
7.6080000000000005,0.9999999999999998,114.07826604869855
7.616,0.9999999999999999,113.64054795473687
7.6240000000000006,1.0,113.20256452674397
7.632,0.9999999999999999,112.76431404948177
7.640000000000001,1.0,112.32579482091452
7.648,1.0,111.887005152341
7.656000000000001,0.9999999999999999,111.44794336852557
7.664,1.0,111.00860780783114
7.672,0.9999999999999999,110.56899682235084
7.68,1.0,110.12910877804148
7.688,0.9999999999999999,109.68894205485624
7.696,0.9999999999999999,109.24849504687829
7.704,0.9999999999999999,108.80776616245416
7.712,0.9999998444005915,108.36675382432801
7.72,0.99999961564086,107.92545646977564
7.728,0.9999993834197606,107.48387255073901
7.736,0.9999991478297366,107.04200053396096
7.744,0.9999989089636465,106.59983890112014
7.752,0.9999986669147366,106.1573861489663
7.76,0.9999984217766119,105.71464078945554
7.768,0.9999981736432109,105.27160134988607
7.776,0.9999979226087766,104.82826637303391
7.784,0.9999976687678307,104.38463441728896
7.792,0.9999974122151473,103.94070405679118
7.8,0.9999971530457241,103.49647388156684
7.808,0.9999968913547598,103.0519424976651
7.816,0.9999966272376241,102.60710852729454
7.824,0.9999963607898346,102.16197060895995
7.832,0.99999609210703,101.7165273975992
7.84,0.9999958212849444,101.27077756472012
7.848,0.9999955484193824,100.82471979853754
7.856,0.9999952736061941,100.37835280411045
7.864,0.9999949969412493,99.93167530347895
7.872,0.9999947185204143,99.48468603580172
7.88,0.9999944384395257,99.03738375749285
7.888,0.9999941567943674,98.58976724235933
7.896,0.9999938736806462,98.14183528173811
7.904,0.999993589193967,97.6935866846332
7.912,0.9999933034298099,97.24502027785282
7.92,0.9999930164835075,96.79613490614645
7.928,0.9999927284502192,96.3469294323417
7.936,0.9999924394249112,95.89740273748122
7.944,0.9999921495023311,95.44755372095935
7.952,0.9999918587769859,94.99738130065874
7.96,0.9999915673431206,94.54688441308677
7.968,0.9999912752946941,94.09606201351174
7.976,0.9999909827253597,93.64491307609887
7.984,0.9999906897284394,93.19343659404619
7.992,0.9999903963969071,92.74163157972005
8.0,0.9999901028233629,92.28949706479035
8.008,0.9999898091000142,91.83703210036573
8.016,0.9999895153186545,91.38423575712788
8.024000000000001,0.999989221570642,90.9311071254664
8.032,0.999988927946879,90.47764531561256
8.04,0.999988634537792,90.02384945777274
8.048,0.9999883414333122,89.56971870226175
8.056000000000001,0.9999880487228539,89.11525221963598
8.064,0.9999877564952956,88.66044920082534
8.072,0.9999874648389624,88.2053088572651
8.08,0.9999871738416032,87.74983042102734
8.088000000000001,0.9999868835903742,87.29401314495199
8.096,0.9999865941718203,86.83785630277694
8.104,0.9999863056718534,86.38135918926751
8.112,0.9999860181757385,85.9245211203457
8.120000000000001,0.9999857317680731,85.46734143321892
8.128,0.9999854465327691,85.00981948650751
8.136,0.9999851625530357,84.55195466037163
8.144,0.999984879911363,84.09374635663791
8.152000000000001,0.9999845986895018,83.63519399892525
8.16,0.9999843189684517,83.17629703276944
8.168,0.999984040828439,82.71705492574708
8.176,0.9999837643489031,82.25746716759893
8.184000000000001,0.9999834896084809,81.7975332703526
8.192,0.9999832166849892,81.33725276844368
8.2,0.9999829456554096,80.87662521883611
8.208,0.9999826765958725,80.41565020114209
8.216000000000001,0.9999824095816426,79.9543273177407
8.224,0.9999821446871046,79.49265619389548
8.232,0.9999818819857463,79.0306364778707
8.24,0.9999816215501468,78.56826784104692
8.248000000000001,0.999981363451959,78.10554997803575
8.256,0.9999811077618991,77.64248260679274
8.264,0.9999808545497306,77.17906546872922
8.272,0.9999806038842518,76.71529832882341
8.280000000000001,0.9999803558332826,76.25118097573014
8.288,0.9999801104636504,75.786713221889
8.296,0.9999798678411792,75.32189490363118
8.304,0.9999796280306766,74.85672588128529
8.312,0.9999793910959208,74.39120603928201
8.32,0.99997915709965,73.92533528625626
8.328,0.9999789261035502,73.45911355514949
8.336,0.9999786981682436,72.99254080330873
8.344,0.9999784733532785,72.52561701258601
8.352,0.9999782517171174,72.05834218943444
8.36,0.9999780333171279,71.59071636500425
8.368,0.9999778182095707,71.1227395952358
8.376,0.9999776064495912,70.65441196095249
8.384,0.9999773980912104,70.18573356795022
8.392,0.9999771931873126,69.71670454708696
8.4,0.9999769917896397,69.24732505436882
8.408,0.9999767939487808,68.77759527103602
8.416,0.9999765997141641,68.30751540364525
8.424,0.9999764091340474,67.83708568415209
8.432,0.9999762222555131,67.36630636998953
8.44,0.9999760391244579,66.89517774414654
8.448,0.9999758597855869,66.42370011524281
8.456,0.9999756842824058,65.95187381760316
8.464,0.9999755126572153,65.47969921132835
8.472,0.9999753449511029,65.0071766823654
8.48,0.9999751812039392,64.5343066425741
8.488,0.99997502145437,64.0610895297931
8.496,0.999974865739812,63.587525807902146
8.504,0.999974714096447,63.11361596688378
8.512,0.9999745665592176,62.63936052288096
8.52,0.9999744231618222,62.164760018254306
8.528,0.9999742839367106,61.68981502163513
8.536,0.9999741489150814,61.21452612797793
8.544,0.9999740181268758,60.73889395860871
8.552,0.9999738916007772,60.2629191612726
8.56,0.9999737693642052,59.7866024101773
8.568,0.9999736514433166,59.309944406035726
8.576,0.9999735378629995,58.832945876104404
8.584,0.9999734286468728,58.355607574221
8.592,0.999973323817285,57.87793028083763
8.6,0.9999732233953122,57.39991480305301
8.608,0.9999731274007562,56.921561974640476
8.616,0.9999730358521449,56.442872656074904
8.624,0.9999729487667318,55.963847734555074
8.632,0.9999728661604954,55.484488124025205
8.64,0.9999727880481394,55.004794765191754
8.648,0.9999727144430934,54.524768625539195
8.656,0.9999726453575142,54.044410699341256
8.664,0.9999725808022857,53.563722007670805
8.672,0.999972520787021,53.08270359840531
8.68,0.9999724653200658,52.601356546230875
8.688,0.999972414408498,52.11968195264164
8.696,0.9999723680581314,51.63768094593787
8.704,0.9999723262735185,51.15535468121931
8.712,0.9999722890579535,50.672704340377045
8.72,0.9999722564134762,50.189731132080674
8.728,0.9999722283408744,49.70643629176406
8.736,0.999972204839689,49.22282108160608
8.744,0.9999721859082193,48.73888679050994
8.752,0.9999721715435255,48.25463473407769
8.76,0.9999721617414354,47.770066254583
8.768,0.9999721564965495,47.285182720939076
8.776,0.9999721558022463,46.799985528664955
8.784,0.9999721596506885,46.31447609984682
8.792,0.9999721680328292,45.828655883097625
8.8,0.9999721809384189,45.34252635351153
8.808,0.9999721983560125,44.856089012617
8.815999999999999,0.9999722202729755,44.36934538832449
8.824,0.9999722466754931,43.882297034872
8.832,0.9999722775485772,43.39494553276704
8.84,0.9999723128760747,42.907292488724615
8.847999999999999,0.9999723526406759,42.419339535601786
8.856,0.9999723968239238,41.93108833232913
8.864,0.9999724454062235,41.44254056383873
8.872,0.9999724983668502,40.95369794098799
8.879999999999999,0.9999725556839598,40.46456220048016
8.888,0.9999726173345997,39.97513510478153
8.896,0.999972683294718,39.48541844203507
8.904,0.9999727535391744,38.99541402597009
8.911999999999999,0.9999728280417514,38.50512369580819
8.92,0.9999729067751651,38.014549316166104
8.928,0.9999729897110772,37.52369277695483
8.936,0.9999730768201063,37.03255599327479
8.943999999999999,0.9999731680718401,36.54114090530708
8.952,0.9999732634348479,36.049449478201836
8.96,0.999973362876693,35.55748370196261
8.968,0.9999734663639461,35.06524559132683
8.975999999999999,0.9999735738621971,34.572737185642445
8.984,0.9999736853360701,34.07996054874141
8.992,0.9999738007492364,33.586917768809414
9.0,0.9999739200644281,33.09361095825146
9.008,0.9999740432434531,32.60004225355382
9.016,0.9999741702472088,32.10621381514261
9.024000000000001,0.9999743010356965,31.612127827238787
9.032,0.9999744355680381,31.117786497708916
9.04,0.9999745738024894,30.623192057912256
9.048,0.9999747156964559,30.12834676254461
9.056000000000001,0.9999748612065089,29.6332528894785
9.064,0.9999750102884013,29.137912739599138
9.072,0.9999751628970841,28.64232863663682
9.08,0.9999753189867207,28.146502926995964
9.088000000000001,0.9999754785107058,27.65043797958064
9.096,0.9999756414216817,27.15413618561584
9.104,0.9999758076715531,26.657599958465248
9.112,0.9999759772115078,26.16083173344569
9.120000000000001,0.9999761499920301,25.66383396763807
9.128,0.9999763259629214,25.166609139694206
9.136,0.9999765050733168,24.66915974964003
9.144,0.999976687271702,24.171488318675834
9.152000000000001,0.9999768725059327,23.673597388972684
9.16,0.9999770607232529,23.175489523465085
9.168,0.9999772518703112,22.677167305640044
9.176,0.9999774458931819,22.178633339323007
9.184000000000001,0.9999776427373825,21.679890248460442
9.192,0.9999778423478921,21.180940676898423
9.2,0.9999780446691704,20.681787288157864
9.208,0.9999782496451787,20.182432765206677
9.216000000000001,0.9999784572193956,19.682879810228684
9.224,0.9999786673348393,19.183131144388636
9.232,0.9999788799340862,18.683189507593884
9.24,0.9999790949592897,18.183057658253347
9.248000000000001,0.9999793123522002,17.682738373033015
9.256,0.9999795320541855,17.18223444660788
9.264,0.9999797540062505,16.68154869141072
9.272,0.9999799781490555,16.180683937377985
9.280000000000001,0.999980204422938,15.67964303169273
9.288,0.9999804327679327,15.178428838523901
9.296,0.9999806631237899,14.677044238762507
9.304,0.9999808954299976,14.175492129755428
9.312000000000001,0.9999811296258013,13.673775425035945
9.32,0.9999813656502222,13.17189705405112
9.328,0.9999816034420809,12.66985996188613
9.336,0.9999818429400151,12.167667108986231
9.344,0.999982084082501,11.665321470876007
9.352,0.9999823268078732,11.162826037874742
9.36,0.9999825710543454,10.660183814810711
9.368,0.999982816760031,10.157397820730962
9.376,0.9999830638629628,9.654471088610308
9.384,0.9999833123011131,9.151406665055983
9.392,0.9999835620124156,8.648207610011312
9.4,0.9999838129347833,8.144876996455453
9.408,0.9999840650061314,7.641417910102096
9.416,0.9999843181643955,7.137833449094341
9.424,0.9999845723475521,6.634126723698687
9.432,0.99998482749364,6.130300855995279
9.44,0.999985083540778,5.626358979567375
9.448,0.9999853404271881,5.122304239187134
9.456,0.9999855980912118,4.618139790500863
9.464,0.9999858564713325,4.1138687997104855
9.472,0.999986115506194,3.609494443254892
9.48,0.9999863751346212,3.1050199074872262
9.488,0.9999866352956385,2.60044838835253
9.496,0.9999868959284891,2.0957830910612847
9.504,0.9999871569726555,1.5910272297633323
9.512,0.9999874183678774,1.0861840272181014
9.52,0.9999876800541727,0.5812567144649692
9.528,0.9999879419718531,0.07624853049036268
9.536,0.9999882040615459,-0.4288372781050235
9.544,0.9999884662642119,-0.9339974574422251
9.552,0.9999887285211617,-1.439228746699511
9.56,0.9999889907740771,-1.94452787845125
9.568,0.999989252965028,-2.449891579006012
9.576,0.9999895150364893,-2.955316568747855
9.584,0.9999897769313592,-3.4607995624768733
9.592,0.9999900385929784,-3.9663372697527115
9.6,0.9999902999651448,-4.471926395237111
9.608,0.9999905609921326,-4.977563639039478
9.616,0.9999908216187083,-5.483245697061302
9.624,0.9999910817901482,-5.988969261343277
9.632,0.9999913414522537,-6.494731020411418
9.64,0.9999916005513692,-7.000527659625545
9.648,0.999991859034397,-7.506355861526688
9.656,0.9999921168488131,-8.012212306186763
9.664,0.9999923739426837,-8.518093671556969
9.672,0.9999926302646799,-9.023996633818347
9.68,0.999992885764092,-9.529917867730926
9.688,0.9999931403908465,-10.035854046984886
9.696,0.9999933940955189,-10.541801844550145
