freq,mag,phase
6.0,0.9999983876404498,171.6978225460987
6.008,0.9999978391285206,171.34307026187994
6.016,0.9999973121795178,170.98815098267215
6.024,0.9999968063941661,170.63305853226836
6.032,0.9999963213776839,170.27778671984026
6.04,0.9999958567397451,169.9223293398251
6.048,0.9999954120944392,169.56668017181173
6.056,0.9999949870602333,169.2108329804262
6.064,0.999994581259935,168.85478151521716
6.072,0.9999941943206521,168.49851951054032
6.08,0.999993825873756,168.1420406854432
6.088,0.9999934755548451,167.785338743549
6.096,0.9999931430037052,167.4284073729408
6.104,0.9999928278642743,167.07124024604505
6.112,0.999992529784604,166.71383101951534
6.12,0.9999922484168245,166.35617333411614
6.128,0.9999919834171084,165.99826081460625
6.136,0.9999917344456318,165.64008706962252
6.144,0.9999915011665413,165.28164569156388
6.152,0.999991283247918,164.9229302564752
6.16,0.9999910803617394,164.56393432393176
6.168,0.9999908921838482,164.20465143692397
6.176,0.999990718393914,163.8450751217424
6.184,0.9999905586754027,163.48519888786342
6.192,0.9999904127155361,163.1250162278353
6.2,0.999990280205264,162.7645206171651
6.208,0.9999901608392252,162.4037055142059
6.216,0.9999900543157202,162.04256436004542
6.224,0.9999899603366698,161.68109057839462
6.232,0.9999898786075885,161.3192775754781
6.24,0.9999898088375495,160.95711873992494
6.248,0.9999897507391521,160.59460744266082
6.256,0.9999897040284892,160.23173703680115
6.264,0.9999896684251167,159.86850085754574
6.272,0.9999896436520178,159.50489222207437
6.28,0.9999896294355792,159.1409044294444
6.288,0.9999896255055511,158.77653076048867
6.296,0.9999896315950237,158.41176447771684
6.304,0.999989647440392,158.04659882521645
6.312,0.9999896727813249,157.681027028557
6.32,0.9999897073607413,157.3150422946955
6.328,0.9999897509247735,156.94863781188377
6.336,0.9999898032227408,156.58180674957828
6.344,0.9999898640071195,156.21454225835146
6.352,0.9999899330335149,155.84683746980582
6.36,0.9999900100606313,155.47868549649007
6.368,0.9999900948502446,155.11007943181775
6.376,0.9999901871671739,154.74101234998864
6.384,0.9999902867792528,154.37147730591224
6.392,0.9999903934573044,154.0014673351347
6.4,0.9999905069751097,153.6309754537681
6.408,0.9999906271093844,153.25999465842276
6.416,0.999990753639752,152.88851792614312
6.424,0.9999908863487134,152.51653821434607
6.432,0.9999910250216251,152.14404846076314
6.44,0.999991169446672,151.77104158338602
6.448,0.99999131941484,151.3975104804155
6.456,0.9999914747198936,151.02344803021418
6.464,0.9999916351583471,150.64884709126312
6.472,0.9999918005294446,150.27370050212224
6.48,0.9999919706351301,149.8980010813948
6.4879999999999995,0.9999921452800277,149.52174162769626
6.496,0.9999923242714139,149.1449149196272
6.504,0.9999925074191987,148.76751371575145
6.5120000000000005,0.9999926945358961,148.38953075457727
6.52,0.999992885436605,148.01095875454544
6.5280000000000005,0.9999930799389865,147.63179041402026
6.536,0.9999932778632392,147.2520184112872
6.5440000000000005,0.9999934790320775,146.87163540455418
6.552,0.9999936832707097,146.4906340319603
6.5600000000000005,0.9999938904068166,146.10900691158756
6.568,0.9999941002705295,145.72674664148062
6.5760000000000005,0.9999943126944087,145.34384579967073
6.584,0.9999945275134228,144.96029694420682
6.592,0.9999947445649283,144.57609261319166
6.6,0.9999949636886476,144.19122532482558
6.608,0.9999951847266515,143.80568757745576
6.616,0.9999954075233364,143.41947184963266
6.624,0.9999956319254064,143.0325706001732
6.632,0.9999958577818534,142.6449762682311
6.64,0.9999960849439377,142.25668127337445
6.648,0.9999963132651691,141.8676780156707
6.656,0.9999965426012892,141.47795887577902
6.664,0.9999967728102506,141.08751621505118
6.672,0.9999970037522034,140.69634237563966
6.68,0.9999972352894716,140.3044296806146
6.688,0.9999974672865398,139.91177043408868
6.696,0.9999976996100337,139.51835692135128
6.704,0.9999979321287045,139.12418140901076
6.712,0.9999981647134111,138.72923614514653
6.72,0.9999983972371027,138.3335133594697
6.728,0.9999986295748055,137.9370052634939
6.736,0.9999988616036033,137.53970405071544
6.744,0.999999093202623,137.14160189680362
6.752,0.9999993242530196,136.74269095980117
6.76,0.9999995546379608,136.34296338033502
6.768,0.9999997842426102,135.94241128183813
6.776,1.0,135.5410267707817
6.784,1.0,135.13880193691907
6.792,1.0,134.7357288535408
6.8,1.0,134.33179957774124
6.808,0.9999999999999999,133.92700615069754
6.816,1.0,133.52134059796032
6.824,0.9999999999999999,133.11479492975707
6.832,0.9999999999999999,132.70736114130835
6.84,1.0,132.29903121315692
6.848,0.9999999999999999,131.88979711150986
6.856,1.0,131.47965078859477
6.864,0.9999999999999999,131.06858418302932
6.872,1.0,130.65658922020532
6.88,1.0,130.24365781268696
6.888,1.0,129.82978186062374
6.896,0.9999999999999999,129.4149532521785
6.904,1.0,128.99916386397095
6.912,0.9999999999999999,128.58240556153618
6.92,1.0,128.16467019979982
6.928,1.0,127.74594962356892
6.936,1.0,127.3262356680396
6.944,0.9999999999999999,126.90552015932143
6.952,0.9999999999999999,126.48379491497896
6.96,0.9999999999999998,126.06105174459088
6.968,1.0,125.63728245032691
6.976,0.9999999999999998,125.2124788275427
6.984,1.0,124.7866326653934
6.992,1.0,124.35973574746596
7.0,1.0,123.93177985243047
7.008,1.0,123.50275675471116
7.016,1.0000000000000002,123.07265822517691
7.024,1.0,122.64147603185235
7.032,1.0,122.209201940649
7.04,1.0,121.77582771611748
7.048,0.9999999999999999,121.34134512222099
7.056,1.0,120.90574592313017
7.064,1.0,120.46902188403976
7.072,1.0,120.03116477200791
7.08,1.0,119.59216635681749
7.088,1.0,119.1520184118608
7.096,1.0,118.71071271504748
7.104,1.0,118.26824104973588
7.112,1.0,117.82459520568871
7.12,1.0,117.3797669800528
7.128,0.9999999999999999,116.93374817836364
7.136,0.9999999999999999,116.48653061557522
7.144,1.0,116.03810611711482
7.152,1.0,115.58846651996413
7.16,1.0,115.13760367376598
7.168,1.0000000000000002,114.68550944195783
7.176,0.9999999999999999,114.23217570293205
7.184,1.0,113.77759435122321
7.192,1.0,113.32175729872317
7.2,0.9999999999999999,112.86465647592351
7.208,0.9999999999999999,112.40628383318675
7.216,0.9999999999999998,111.94663134204554
7.224,1.0,111.48569099653105
7.232,1.0,111.02345481453034
7.24,0.9999999999999999,110.55991483917317
7.248,1.0,110.09506314024883
7.256,1.0,109.62889181565275
7.264,0.9999999999999999,109.16139299286378
7.272,0.9999999999999999,108.69255883045197
7.28,1.0,108.22238151961749
7.288,1.0,107.75085328576067
7.296,1.0,107.27796639008358
7.304,1.0,106.80371313122355
7.312,0.9999999999999999,106.32808584691864
7.32,0.9999999999999999,105.85107691570524
7.328,0.9999999999999999,105.37267875864845
7.336,1.0,104.89288384110509
7.344,0.9999999999999999,104.41168467451966
7.352,0.9999999999999999,103.92907381825344
7.36,0.9999999999999999,103.44504388144689
7.368,1.0,102.95958752491575
7.376,0.9999999999999999,102.47269746308051
7.384,0.9999999999999999,101.98436646592988
7.392,1.0,101.49458736101829
7.4,1.0,101.00335303549704
7.4079999999999995,1.0,100.51065643818015
7.416,0.9999999999999999,100.01649058164368
7.4239999999999995,1.0,99.52084854436045
7.432,0.9999999999999999,99.02372347286746
7.4399999999999995,0.9999999999999999,98.52510858396951
7.448,0.9999999999999999,98.02499716697535
7.4559999999999995,1.0,97.52338258596963
7.464,0.9999999999999998,97.02025828211778
7.4719999999999995,1.0,96.51561777600645
7.48,0.9999999999999998,96.0094546700165
7.4879999999999995,1.0000000000000002,95.50176265073159
7.496,1.0,94.99253549137883
7.504,1.0,94.48176705430498
7.5120000000000005,0.9999999999999999,93.96945129348414
7.52,0.9999999999999998,93.45558225706046
7.5280000000000005,0.9999999999999998,92.94015408992222
7.536,0.9999999999999999,92.42316103631008
7.5440000000000005,1.0,91.904597442456
7.552,1.0,91.38445775925611
7.5600000000000005,0.9999999999999999,90.86273654497306
7.568,1.0,90.33942846797163
7.5760000000000005,1.0,89.81452830948317
7.584,0.9999999999999999,89.28803096640206
7.5920000000000005,0.9999999999999999,88.75993145411006
7.6,0.9999999999999998,88.23022490933172
7.6080000000000005,1.0,87.6989065930165
7.616,0.9999999999999999,87.16597189325039
7.6240000000000006,1.0,86.63141632819324
7.632,0.9999999999999999,86.09523554904426
7.640000000000001,0.9999999999999998,85.5574253430313
7.648,1.0,85.01798163642715
7.656000000000001,0.9999999999999999,84.47690049758775
7.664,0.9999999999999999,83.93417814001572
7.672,1.0,83.38981092544398
7.68,0.9999999999999999,82.84379536694244
7.688,1.0,82.29612813204369
7.696,1.0,81.74680604588832
7.704,0.9999999999999998,81.19582609438804
7.712,0.9999999999999998,80.6431854274056
7.72,0.9999999999999999,80.08888136195051
7.728,0.9999999999999999,79.5329113853886
7.736,1.0,78.97527315866492
7.744,1.0,78.41596451953806
7.752,1.0,77.85498348582465
7.76,1.0,77.29232825865233
7.768,1.0,76.72799722572015
7.776,1.0,76.16198896456416
7.784,0.9999999999999999,75.5943022458272
7.792,1.0,75.02493603653056
7.8,1.0,74.4538895033463
7.808,0.9999999999999999,73.88116201586811
7.816,0.9999999999999999,73.30675314987889
7.824,0.9999999999999999,72.73066269061327
7.832,1.0,72.15289063601307
7.84,1.0,71.57343719997354
7.848,1.0,70.99230281557848
7.856,0.9999999999999999,70.40948813832208
7.864,0.9999998423600399,69.82499404931521
7.872,0.9999996092653695,69.23882165847417
7.88,0.9999993749436065,68.65097230768929
7.888,0.999999139480951,68.06144757397146
7.896,0.9999989029642875,67.47024927257387
7.904,0.9999986654811563,66.87737946008664
7.912,0.9999984271197244,66.28284043750219
7.92,0.9999981879687554,65.68663475324819
7.928,0.9999979481175785,65.0887652061863
7.936,0.9999977076560576,64.48923484857352
7.944,0.9999974666745585,63.888046988983675
7.952,0.9999972252639159,63.28520519518663
7.96,0.9999969835154005,62.68071329698207
7.968,0.999996741520684,62.07457538898552
7.976,0.9999964993718042,61.466795833363435
7.984,0.9999962571611297,60.85737926251494
7.992,0.9999960149813232,60.24633058169701
8.0,0.9999957729253035,59.63365497159049
8.008,0.9999955310862091,59.01935789080391
8.016,0.9999952895573597,58.403445078311925
8.024000000000001,0.9999950484322152,57.78592255582662
8.032,0.9999948078043386,57.16679663009687
8.04,0.9999945677673534,56.546073895133816
8.048,0.9999943284149044,55.92376123435995
8.056000000000001,0.9999940898406144,55.299865822678306
8.064,0.9999938521380438,54.67439512845814
8.072,0.9999936154006459,54.047356915434726
8.08,0.9999933797217259,53.41875924452067
8.088000000000001,0.9999931451943949,52.78861047552553
8.096,0.9999929119115268,52.15691926877975
8.104,0.9999926799657143,51.523694586660966
8.112,0.9999924494492208,50.88894569501988
8.120000000000001,0.9999922204539392,50.25268216450251
8.128,0.9999919930713407,49.614913871765154
8.136,0.9999917673924326,48.97565100057996
8.144,0.9999915435077095,48.334904042828555
8.152000000000001,0.9999913215071068,47.69268379938051
8.16,0.9999911014799531,47.04900138085349
8.168,0.9999908835149223,46.40386820825256
8.176,0.9999906676999865,45.75729601348671
8.184000000000001,0.999990454122368,45.10929683975968
8.192,0.99999024286849,44.459883041831425
8.2,0.9999900340239298,43.809067286148895
8.208,0.9999898276733702,43.15686255084376
8.216000000000001,0.9999896239005495,42.503282125594424
8.224,0.999989422788216,41.84833961134968
8.232,0.9999892244180772,41.192048919911706
8.24,0.9999890288707537,40.53442427337783
8.248000000000001,0.9999888362257289,39.87548020343771
8.256,0.9999886465613038,39.215231550523626
8.264,0.9999884599545469,38.55369346281296
8.272,0.9999882764812487,37.89088139508141
8.280000000000001,0.9999880962158739,37.22681110740484
8.288,0.9999879192315149,36.561498663707724
8.296,0.9999877455998447,35.89496043015747
8.304,0.9999875753910741,35.22721307340375
8.312,0.9999874086739021,34.55827355866166
8.32,0.999987245515475,33.88815914763552
8.328,0.9999870859813405,33.216887396286886
8.336,0.9999869301354043,32.54447615244086
8.344,0.9999867780398886,31.87094355323503
8.352,0.9999866297552888,31.196308022406097
8.36,0.9999864853403329,30.520588267418486
8.368,0.9999863448519422,29.843803276429735
8.376,0.9999862083451898,29.165972315098323
8.384,0.9999860758732652,28.48711492322815
8.392,0.9999859474874331,27.807250911255867
8.4,0.999985823237001,27.126400356576163
8.408,0.9999857031692816,26.44458359971057
8.416,0.9999855873295592,25.76182124031583
8.424,0.999985475761057,25.078134133037857
8.432,0.9999853685049046,24.39354338320702
8.44,0.9999852656001103,23.70807034238166
8.448,0.9999851670835282,23.021736603735942
8.456,0.9999850729898335,22.33456399729871
8.464,0.9999849833514949,21.64657458504039
8.472,0.9999848981987496,20.957790655814765
8.48,0.9999848175595817,20.268234720152822
8.488,0.9999847414596983,19.57792950491603
8.496,0.9999846699225087,18.886897947806524
8.504,0.9999846029691096,18.195163191741877
8.512,0.9999845406182645,17.502748579092287
8.52,0.9999844828863883,16.809677645788156
8.528,0.9999844297875358,16.11597411529619
8.536,0.9999843813333876,15.421661892472347
8.544,0.9999843375332417,14.72676505729027
8.552,0.9999842983940025,14.031307858453278
8.56,0.9999842639201769,13.335314706889442
8.568,0.9999842341138667,12.638810169137953
8.576,0.9999842089747675,11.941818960626248
8.584,0.9999841885001655,11.244365938846938
8.592,0.99998417268494,10.546476096433752
8.6,0.9999841615215639,9.848174554146187
8.608,0.9999841550001075,9.149486553762081
8.616,0.9999841531082486,8.450437450888057
8.624,0.9999841558312744,7.751052707687525
8.632,0.9999841631520956,7.051357885536085
8.64,0.999984175051256,6.3513786376043795
8.648,0.9999841915069466,5.651140701378406
8.656,0.9999842124950202,4.950669891117559
8.664,0.9999842379890098,4.249992090260502
8.672,0.999984267960145,3.549133243779357
8.68,0.9999843023773751,2.84811935049237
8.688,0.9999843412073908,2.1469764553356963
8.696,0.9999843844146471,1.4457306416047502
8.704,0.9999844319613906,0.7444080231654828
8.712,0.9999844838076876,0.043034736646467085
8.72,0.9999845399114511,-0.6583630663879343
8.728,0.9999846002284735,-1.3597592272724364
8.736,0.9999846647124594,-2.0611275880832545
8.744,0.9999847333150581,-2.762441999477367
8.752,0.9999848059859006,-3.463676328528009
8.76,0.9999848826726365,-4.164804466545746
8.768,0.9999849633209724,-4.865800336884485
8.776,0.999985047874712,-5.566637902721915
8.784,0.9999851362757975,-6.267291174813684
8.792,0.9999852284643523,-6.967734219210914
8.8,0.9999853243787259,-7.66794116494049
8.808,0.9999854239555372,-8.367886211637725
8.815999999999999,0.9999855271297236,-9.067543637130887
8.824,0.9999856338345863,-9.766887804968405
8.832,0.9999857440018401,-10.465893171885158
8.84,0.9999858575616632,-11.16453429520327
8.847999999999999,0.9999859744427475,-11.86278584016173
8.856,0.9999860945723498,-12.56062258716913
8.864,0.9999862178763449,-13.25801943897547
8.872,0.9999863442792793,-13.954951427758695
8.879999999999999,0.9999864737044235,-14.651393722120886
8.888,0.9999866060738286,-15.347321633988818
8.896,0.9999867413083797,-16.042710625415125
8.904,0.9999868793278532,-16.737536315276554
8.911999999999999,0.9999870200509725,-17.431774485864246
8.92,0.9999871633954648,-18.1254010893618
8.928,0.9999873092781177,-18.818392254207506
8.936,0.9999874576148383,-19.510724291337862
8.943999999999999,0.999987608320709,-20.20237370030816
8.952,0.9999877613100459,-20.89331717528602
8.96,0.9999879164964578,-21.58353161091524
8.968,0.9999880737929033,-22.272994108047552
8.975999999999999,0.9999882331117486,-22.961681979338607
8.984,0.999988394364827,-23.649572754704828
8.992,0.9999885574634957,-24.33664418663916
9.0,0.9999887223186933,-25.02287425538382
9.008,0.9999888888409986,-25.7082411739571
9.016,0.9999890569406867,-26.392723393031595
9.024000000000001,0.9999892265277874,-27.076299605662484
9.032,0.9999893975121398,-27.758948751864548
9.04,0.99998956980345,-28.440650023035936
9.048,0.9999897433113472,-29.12138286622635
9.056000000000001,0.9999899179454359,-29.801126988249237
9.064,0.9999900936153551,-30.479862359637266
9.072,0.9999902702308279,-31.157569218439676
9.08,0.9999904477017182,-31.83422807385999
9.088000000000001,0.9999906259380794,-32.50981970973433
9.096,0.9999908048502113,-33.184325187849915
9.104,0.999990984348706,-33.85772585110368
9.112,0.999991164344502,-34.530003326499525
9.120000000000001,0.9999913447489315,-35.201139527985056
9.128,0.9999915254737686,-35.87111665912895
9.136,0.9999917064312787,-36.539917215637985
9.144,0.9999918875342627,-37.20752398771406
9.152000000000001,0.999992068696104,-37.87392006225258
9.16,0.9999922498308137,-38.53908882488286
9.168,0.9999924308530712,-39.203013961851546
9.176,0.9999926116782697,-39.86567946174903
9.184000000000001,0.9999927922225552,-40.527069617081004
9.192,0.9999929724028682,-41.18716902568637
9.2,0.9999931521369825,-41.84596259200311
9.208,0.999993331343541,-42.50343552818247
9.216000000000001,0.9999935099420965,-43.15957335505371
9.224,0.9999936878531426,-43.814361902942174
9.232,0.9999938649981516,-44.46778731234135
9.24,0.999994041299606,-45.11983603444066
9.248000000000001,0.9999942166810305,-45.77049483151154
9.256,0.999994391067023,-46.41975077715428
9.264,0.9999945643832845,-47.067591256407674
9.272,0.9999947365566456,-47.71400396572269
9.280000000000001,0.9999949075150951,-48.35897691280348
9.288,0.9999950771878071,-49.00249841631872
9.296,0.9999952455051621,-49.64455710548484
9.304,0.9999954123987722,-50.28514191952371
9.312000000000001,0.9999955778015036,-50.924242106997454
9.32,0.9999957416474979,-51.56184722502402
9.328,0.9999959038721898,-52.197947138375376
9.336,0.9999960644123266,-52.8325320184609
9.344,0.9999962232059872,-53.4655923421987
9.352,0.9999963801925957,-54.09711889077986
9.36,0.9999965353129371,-54.7271027483244
9.368,0.9999966885091719,-55.35553530043668
9.376,0.9999968397248483,-55.98240823265847
9.384,0.9999969889049134,-56.60771352882701
9.392,0.999997135995724,-57.23144346933702
9.4,0.9999972809450559,-57.853590629313466
9.408,0.9999974237021119,-58.47414787669415
9.416,0.9999975642175288,-59.09310837022935
9.424,0.9999977024433854,-59.71046555739699
9.432,0.9999978383332038,-60.32621317224098
9.44,0.9999979718419573,-60.9403452331311
9.448,0.999998102926072,-61.55285604045197
9.456,0.9999982315434284,-62.16374017421955
9.464,0.999998357653363,-62.77299249163252
9.472,0.99999848121667,-63.380608124557305
9.48,0.9999986021955979,-63.986582476953686
9.488,0.9999987205538506,-64.5909112222399
9.496,0.9999988362565843,-65.19359030060406
9.504,0.9999989492704034,-65.79461591626081
9.512,0.9999990595633579,-66.39398453465991
9.52,0.9999991671049372,-66.99169287964565
9.528,0.9999992718660661,-67.58773793057384
9.536,0.9999993738190983,-68.18211691938481
9.544,0.9999994729378073,-68.77482732763953
9.552,0.9999995691973839,-69.36586688351711
9.56,0.9999996625744203,-69.9552335587805
9.568,0.999999753046909,-70.54292556570866
9.576,0.9999998405942281,-71.12894135400211
9.584,0.9999999251971317,-71.71327960765986
9.592,1.0,-72.29593924183452
9.6,0.9999999999999999,-72.87691939966358
9.608,0.9999999999999999,-73.45621944908355
9.616,0.9999999999999999,-74.03383897962496
9.624,1.0,-74.6097777991944
9.632,1.0,-75.18403593084201
9.64,0.9999999999999999,-75.75661360952029
9.648,0.9999999999999999,-76.32751127883242
9.656,1.0,-76.896729587776
9.664,0.9999999999999999,-77.46426938748021
9.672,1.0,-78.03013172794239
9.68,1.0,-78.59431785476161
9.688,0.9999999999999999,-79.15682920587527
9.696,0.9999999999999999,-79.71766740829648
9.704,0.9999999999999999,-80.27683427485762
9.712,0.9999999999999998,-80.83433180095813
9.72,0.9999999999999999,-81.39016216132165
9.728,0.9999999999999999,-81.94432770676055
9.736,1.0000000000000002,-82.4968309609527
9.744,1.0,-83.04767461722872
9.752,0.9999999999999999,-83.59686153537405
9.76,0.9999999999999999,-84.14439473844426
9.768,0.9999999999999999,-84.69027740959801
9.776,0.9999999999999999,-85.23451288894526
9.784,1.0,-85.77710467041595
9.792,0.9999999999999999,-86.3180563986461
9.8,0.9999999999999999,-86.85737186588648
