freq,mag,phase
6.0,0.9999998373890517,123.30891167983228
6.008,0.9999991589903701,123.2320099254549
6.016,0.999998503305405,123.155103969634
6.024,0.9999978700067336,123.07819379668193
6.032,0.999997258769368,123.0012793909834
6.04,0.9999966692707457,122.92436073699503
6.048,0.9999961011907182,122.8474378192451
6.056,0.9999955542115428,122.77051062233313
6.064,0.9999950280178684,122.69357913092952
6.072,0.9999945222967277,122.61664332977544
6.08,0.999994036737527,122.5397032036822
6.088,0.9999935710320337,122.46275873753105
6.096,0.9999931248743676,122.38580991627293
6.104,0.9999926979609908,122.30885672492803
6.112,0.9999922899906966,122.23189914858553
6.12,0.9999919006645989,122.15493717240318
6.128,0.9999915296861246,122.07797078160709
6.136,0.9999911767610004,122.00099996149135
6.144,0.9999908415972448,121.92402469741774
6.152,0.9999905239051576,121.84704497481532
6.16,0.999990223397309,121.77006077918027
6.168,0.9999899397885313,121.69307209607543
6.176,0.9999896727959086,121.61607891113002
6.184,0.9999894221387656,121.53908121003943
6.192,0.9999891875386598,121.46207897856475
6.2,0.9999889687193712,121.38507220253251
6.208,0.999988765406891,121.3080608678345
6.216,0.9999885773294146,121.23104496042725
6.224,0.9999884042173302,121.15402446633192
6.232,0.9999882458032099,121.07699937163379
6.24,0.9999881018217996,120.99996966248212
6.248,0.9999879720100107,120.92293532508988
6.256,0.9999878561069092,120.84589634573321
6.264,0.9999877538537082,120.76885271075139
6.272,0.9999876649937562,120.69180440654642
6.28,0.9999875892725296,120.61475141958265
6.288,0.9999875264376227,120.53769373638667
6.296,0.9999874762387394,120.46063134354681
6.304,0.9999874384276826,120.383564227713
6.312,0.9999874127583451,120.3064923755964
6.32,0.9999873989867026,120.22941577396918
6.328,0.9999873968708023,120.15233440966415
6.336,0.9999874061707548,120.07524826957447
6.344,0.9999874266487249,119.99815734065346
6.352,0.9999874580689233,119.92106160991428
6.36,0.9999875001975969,119.84396106442952
6.368,0.9999875528030205,119.76685569133113
6.376,0.999987615655487,119.68974547780994
6.384,0.9999876885273001,119.61263041111553
6.392,0.9999877711927644,119.53551047855585
6.4,0.9999878634281769,119.45838566749701
6.408,0.9999879650118185,119.38125596536298
6.416,0.9999880757239454,119.30412135963532
6.424,0.9999881953467804,119.22698183785285
6.432,0.9999883236645037,119.14983738761148
6.44,0.999988460463246,119.07268799656387
6.448,0.9999886055310779,118.99553365241918
6.456,0.9999887586580027,118.91837434294284
6.464,0.9999889196359484,118.84121005595615
6.472,0.9999890882587579,118.76404077933618
6.48,0.9999892643221814,118.68686650101547
6.4879999999999995,0.999989447623868,118.60968720898164
6.496,0.9999896379633582,118.53250289127725
6.504,0.9999898351420737,118.45531353599957
6.5120000000000005,0.999990038963311,118.37811913130018
6.52,0.9999902492322325,118.30091966538488
6.5280000000000005,0.9999904657558574,118.22371512651326
6.536,0.9999906883430559,118.1465055029986
6.5440000000000005,0.999990916804539,118.06929078320749
6.552,0.9999911509528513,117.99207095555973
6.5600000000000005,0.9999913906023626,117.91484600852785
6.568,0.9999916355692599,117.83761593063716
6.5760000000000005,0.9999918856715404,117.76038071046516
6.584,0.9999921407290021,117.68314033664161
6.592,0.9999924005632366,117.60589479784811
6.6,0.9999926649976218,117.5286440828178
6.608,0.9999929338573128,117.45138818033533
6.616,0.9999932069692349,117.37412707923643
6.624,0.9999934841620758,117.2968607684077
6.632,0.9999937652662773,117.2195892367865
6.64,0.9999940501140289,117.14231247336048
6.648,0.9999943385392578,117.06503046716762
6.656,0.9999946303776236,116.98774320729574
6.664,0.9999949254665096,116.91045068288237
6.672,0.9999952236450149,116.83315288311462
6.68,0.9999955247539474,116.75584979722876
6.688,0.999995828635816,116.67854141451012
6.696,0.9999961351348229,116.60122772429277
6.704,0.999996444096857,116.52390871595941
6.712,0.9999967553694848,116.446584378941
6.72,0.9999970688019449,116.36925470271663
6.728,0.9999973842451391,116.29191967681328
6.736,0.9999977015516255,116.21457929080559
6.744,0.9999980205756116,116.13723353431558
6.752,0.9999983411729463,116.05988239701259
6.76,0.9999986632011129,115.98252586861284
6.768,0.9999989865192221,115.90516393887935
6.776,0.9999993109880041,115.82779659762176
6.784,0.9999996364698021,115.75042383469594
6.792,0.9999999628285646,115.67304564000399
6.8,0.9999999999999999,115.59566200349386
6.808,1.0,115.51827291515919
6.816,0.9999999999999999,115.44087836503917
6.824,0.9999999999999999,115.36347834321818
6.832,0.9999999999999999,115.2860728398257
6.84,0.9999999999999999,115.20866184503609
6.848,1.0,115.13124534906832
6.856,1.0,115.05382334218588
6.864,1.0,114.97639581469637
6.872,1.0,114.8989627569516
6.88,1.0,114.82152415934706
6.888,1.0,114.74408001232196
6.896,0.9999999999999999,114.66663030635894
6.904,1.0,114.58917503198387
6.912,0.9999999999999999,114.51171417976565
6.92,1.0,114.43424774031602
6.928,1.0,114.35677570428943
6.936,1.0,114.27929806238271
6.944,1.0,114.20181480533499
6.952,1.0,114.12432592392751
6.96,1.0,114.04683140898335
6.968,0.9999999999999999,113.9693312513673
6.976,1.0,113.89182544198567
6.984,0.9999999999999999,113.81431397178608
6.992,0.9999999999999999,113.7367968317573
7.0,1.0,113.65927401292906
7.008,1.0,113.58174550637187
7.016,1.0,113.50421130319681
7.024,1.0,113.42667139455537
7.032,1.0,113.34912577163932
7.04,1.0,113.27157442568044
7.048,0.9999999999999999,113.19401734795044
7.056,0.9999999999999999,113.11645452976065
7.064,1.0,113.03888596246202
7.072,1.0,112.96131163744482
7.08,1.0,112.88373154613855
7.088,1.0,112.80614568001167
7.096,1.0,112.72855403057149
7.104,1.0,112.65095658936406
7.112,1.0,112.5733533479739
7.12,1.0,112.49574429802392
7.128,0.9999999999999999,112.41812943117517
7.136,1.0,112.34050873912676
7.144,1.0,112.26288221361561
7.152,1.0,112.18524984641644
7.16,1.0,112.1076116293414
7.168,1.0,112.02996755424014
7.176,1.0,111.95231761299944
7.184,0.9999999999999999,111.87466179754318
7.192,0.9999999999999998,111.79700009983223
7.2,0.9999999999999999,111.71933251186415
7.208,1.0,111.64165902567314
7.216,1.0,111.56397963332984
7.224,1.0,111.48629432694128
7.232,1.0,111.40860309865057
7.24,1.0,111.33090594063694
7.248,1.0,111.2532028451154
7.256,1.0,111.17549380433674
7.264,0.9999999999999999,111.09777881058737
7.272,1.0,111.02005785618908
7.28,1.0,110.94233093349904
7.288,1.0,110.86459803490955
7.296,1.0,110.78685915284797
7.304,0.9999999999999999,110.70911427977649
7.312,1.0,110.63136340819216
7.32,0.9999999999999999,110.5536065306266
7.328,1.0,110.47584363964593
7.336,1.0,110.39807472785064
7.344,1.0,110.32029978787546
7.352,0.9999999999999999,110.24251881238924
7.36,1.0,110.16473179409475
7.368,1.0,110.08693872572869
7.376,0.9999999999999999,110.00913960006146
7.384,0.9999999999999999,109.93133440989702
7.392,1.0,109.85352314807288
7.4,1.0,109.77570580745987
7.4079999999999995,1.0,109.69788238096214
7.416,0.9999999999999999,109.6200528615168
7.4239999999999995,1.0,109.54221724209414
7.432,0.9999999999999999,109.46437551569724
7.4399999999999995,0.9999999999999999,109.38652767536203
7.448,1.0,109.30867371415704
7.4559999999999995,1.0,109.23081362518342
7.464,0.9999999999999999,109.15294740157466
7.4719999999999995,1.0,109.07507503649673
7.48,1.0,108.99719652314771
7.4879999999999995,0.9999999999999999,108.91931185475785
7.496,1.0,108.84142102458945
7.504,1.0,108.76352402593665
7.5120000000000005,0.9999999999999999,108.68562085212547
7.52,1.0,108.60771149651363
7.5280000000000005,1.0,108.52979595249042
7.536,0.9999999999999999,108.45187421347669
7.5440000000000005,0.9999999999999999,108.37394627292468
7.552,1.0,108.29601212431803
7.5600000000000005,1.0,108.21807176117149
7.568,1.0,108.14012517703105
7.5760000000000005,1.0,108.0621723654737
7.584,1.0,107.98421332010743
7.5920000000000005,1.0,107.90624803457105
7.6,1.0,107.8282765025342
7.6080000000000005,1.0,107.75029871769718
7.616,0.9999999999999999,107.67231467379095
7.6240000000000006,0.9999999999999999,107.59432436457698
7.632,1.0,107.51632778384722
7.640000000000001,1.0,107.43832492542393
7.648,0.9999999999999999,107.36031578315978
7.656000000000001,0.9999999999999999,107.28230035093755
7.664,1.0,107.20427862267024
7.672,1.0,107.1262505923009
7.68,1.0,107.0482162538026
7.688,1.0,106.97017560117827
7.696,1.0,106.89212862846084
7.704,0.9999999999999999,106.81407532971289
7.712,1.0,106.73601569902685
7.72,0.9999999999999999,106.65794973052473
7.728,1.0,106.57987741835822
7.736,1.0,106.5017987567085
7.744,0.9999999999999999,106.42371373978625
7.752,0.9999999999999999,106.34562236183159
7.76,1.0,106.26752461711399
7.768,1.0000000000000002,106.18942049993227
7.776,1.0,106.11131000461444
7.784,1.0,106.03319312551783
7.792,1.0,105.95506985702883
7.8,0.9999999999999999,105.87694019356302
7.808,1.0,105.79880412956497
7.816,1.0,105.72066165950835
7.824,1.0,105.64251277789576
7.832,1.0,105.56435747925875
7.84,0.9999999999999998,105.48619575815776
7.848,0.9999999999999999,105.4080276091821
7.856,1.0,105.32985302694989
7.864,1.0,105.25167200610802
7.872,1.0,105.17348454133217
7.88,0.9999999999999998,105.09529062732672
7.888,0.9999999999999999,105.01709025882472
7.896,1.0000000000000002,104.93888343058794
7.904,1.0,104.86067013740671
7.912,0.9999999999999999,104.78245037410002
7.92,1.0,104.70422413551545
7.928,1.0,104.6259914165291
7.936,1.0,104.54775221204567
7.944,0.9999999999999999,104.46950651699835
7.952,1.0,104.39125432634887
7.96,1.0,104.31299563508742
7.968,1.0,104.2347304382327
7.976,1.0,104.15645873083191
7.984,1.0,104.07818050796064
7.992,1.0,103.99989576472302
8.0,1.0,103.92160449625159
8.008,0.9999999999999999,103.8433066977073
8.016,1.0,103.76500236427964
8.024000000000001,1.0,103.68669149118647
8.032,0.9999999999999999,103.60837407367413
8.04,1.0,103.53005010701743
8.048,1.0,103.45171958651956
8.056000000000001,1.0,103.37338250751226
8.064,1.0,103.29503886535576
8.072,0.9999999999999999,103.21668865543869
8.08,0.9999999999999999,103.13833187317822
8.088000000000001,0.9999999999999999,103.05996851402004
8.096,1.0,102.98159857343843
8.104,1.0,102.90322204693611
8.112,1.0,102.82483893004444
8.120000000000001,0.9999999999999998,102.74644921832338
8.128,1.0,102.6680529073615
8.136,1.0,102.58964999277602
8.144,1.0,102.5112404702128
8.152000000000001,1.0,102.43282433534647
8.16,1.0,102.35440158388039
8.168,1.0,102.27597221154667
8.176,0.9999999999999999,102.19753621410624
8.184000000000001,1.0,102.11909358734887
8.192,0.9999999999999999,102.0406443270933
8.2,1.0,101.96218842918715
8.208,1.0,101.88372588950696
8.216000000000001,0.9999999999999998,101.80525670395842
8.224,0.9999999999999999,101.72678086847627
8.232,0.9999999999999999,101.64829837902433
8.24,0.9999999060188267,101.56980923159563
8.248000000000001,0.9999994655753108,101.49131342221244
8.256,0.9999990217025514,101.4128109469264
8.264,0.9999985744583462,101.3343018018184
8.272,0.9999981239010602,101.25578598299879
8.280000000000001,0.9999976700896196,101.17726348660744
8.288,0.9999972130835072,101.09873430881379
8.296,0.9999967529427576,101.0201984458168
8.304,0.9999962897279501,100.94165589384521
8.312,0.9999958235002055,100.86310664915753
8.32,0.9999953543211793,100.78455070804202
8.328,0.9999948822530561,100.705988066817
8.336,0.9999944073585454,100.62741872183065
8.344,0.9999939297008753,100.54884266946131
8.352,0.9999934493437873,100.47025990611746
8.36,0.9999929663515303,100.39167042823787
8.368,0.9999924807888558,100.31307423229158
8.376,0.9999919927210117,100.2344713147781
8.384,0.9999915022137371,100.15586167222746
8.392,0.9999910093332572,100.07724530120032
8.4,0.9999905141462759,99.99862219828799
8.408,0.9999900167199715,99.9199923601127
8.416,0.999989517121992,99.8413557833275
8.424,0.9999890154204462,99.76271246461654
8.432,0.9999885116839012,99.68406240069501
8.44,0.9999880059813743,99.60540558830944
8.448,0.9999874983823287,99.52674202423758
8.456,0.9999869889566666,99.44807170528877
8.464,0.9999864777747236,99.36939462830382
8.472,0.9999859649072625,99.29071079015532
8.48,0.9999854504254683,99.21202018774758
8.488,0.9999849344009408,99.13332281801694
8.496,0.999984416905689,99.05461867793169
8.504,0.9999838980121255,98.9759077644924
8.512,0.9999833777930597,98.89719007473192
8.52,0.9999828563216919,98.81846560571556
8.528,0.9999823336716064,98.73973435454113
8.536,0.9999818099167662,98.66099631833927
8.544,0.9999812851315062,98.58225149427338
8.552,0.9999807593905262,98.50349987953993
8.56,0.9999802327688855,98.42474147136839
8.568,0.9999797053419954,98.3459762670217
8.576,0.9999791771856129,98.26720426379602
8.584,0.999978648375835,98.18842545902123
8.592,0.9999781189890905,98.10963985006087
8.6,0.999977589102134,98.03084743431239
8.608,0.9999770587920399,97.95204820920719
8.616,0.9999765281361938,97.87324217221094
8.624,0.999975997212287,97.79442932082364
8.632,0.9999754660983087,97.71560965257977
8.64,0.99997493487254,97.63678316504851
8.648,0.9999744036135448,97.55794985583387
8.656,0.999973872400165,97.4791097225748
8.664,0.999973341311512,97.40026276294554
8.672,0.9999728104269585,97.32140897465558
8.68,0.9999722798261336,97.24254835545
8.688,0.9999717495889128,97.16368090310945
8.696,0.9999712197954118,97.08480661545062
8.704,0.9999706905259785,97.00592549032608
8.712,0.9999701618611855,96.92703752562477
8.72,0.999969633881822,96.84814271927193
8.728,0.9999691066688864,96.7692410692295
8.736,0.999968580303578,96.69033257349608
8.744,0.9999680548672891,96.61141723010735
8.752,0.9999675304415969,96.53249503713609
8.76,0.999967007108255,96.45356599269245
8.768,0.9999664849491857,96.37463009492407
8.776,0.9999659640464711,96.29568734201644
8.784,0.9999654444823451,96.21673773219285
8.792,0.9999649263391842,96.13778126371483
8.8,0.9999644096994991,96.05881793488214
8.808,0.9999638946459264,95.97984774403315
8.815999999999999,0.9999633812612195,95.90087068954489
8.824,0.9999628696282385,95.82188676983334
8.832,0.9999623598299432,95.74289598335363
8.84,0.9999618519493818,95.66389832860024
8.847999999999999,0.9999613460696837,95.58489380410712
8.856,0.999960842274048,95.50588240844803
8.864,0.9999603406457359,95.42686414023666
8.872,0.9999598412680593,95.3478389981269
8.879999999999999,0.9999593442243724,95.26880698081293
8.888,0.9999588495980614,95.18976808702956
8.896,0.9999583574725341,95.11072231555241
8.904,0.999957867931211,95.03166966519805
8.911999999999999,0.9999573810575128,94.95261013482431
8.92,0.9999568969348528,94.87354372333036
8.928,0.9999564156466245,94.7944704296571
8.936,0.9999559372761914,94.7153902527872
8.943999999999999,0.9999554619068767,94.63630319174543
8.952,0.9999549896219514,94.55720924559874
8.96,0.9999545205046253,94.47810841345667
8.968,0.999954054638033,94.39900069447137
8.975999999999999,0.999953592105225,94.31988608783787
8.984,0.9999531329891548,94.24076459279433
8.992,0.9999526773726679,94.16163620862226
9.0,0.9999522253384902,94.08250093464662
9.008,0.9999517769692157,94.0033587702361
9.016,0.9999513323472938,93.92420971480334
9.024000000000001,0.999950891555019,93.84505376780514
9.032,0.9999504546745166,93.76589092874259
9.04,0.9999500217877312,93.68672119716133
9.048,0.9999495929764133,93.60754457265172
9.056000000000001,0.9999491683221071,93.52836105484907
9.064,0.999948747906137,93.44917064343385
9.072,0.9999483318095951,93.36997333813179
9.08,0.9999479201133262,93.2907691387141
9.088000000000001,0.9999475128979163,93.21155804499782
9.096,0.9999471102436772,93.13234005684578
9.104,0.9999467122306335,93.05311517416686
9.112,0.9999463189385083,92.9738833969162
9.120000000000001,0.9999459304467084,92.89464472509539
9.128,0.9999455468343112,92.81539915875261
9.136,0.999945168180048,92.73614669798273
9.144,0.9999447945622908,92.65688734292762
9.152000000000001,0.9999444260590364,92.57762109377616
9.16,0.9999440627478923,92.49834795076454
9.168,0.9999437047060591,92.41906791417627
9.176,0.9999433520103167,92.3397809843424
9.184000000000001,0.9999430047370083,92.26048716164166
9.192,0.9999426629620235,92.18118644650065
9.2,0.9999423267607823,92.10187883939376
9.208,0.999941996208219,92.02256434084352
9.216000000000001,0.9999416713787661,91.94324295142061
9.224,0.9999413523463351,91.86391467174404
9.232,0.9999410391843021,91.7845795024811
9.24,0.9999407319654885,91.70523744434759
9.248000000000001,0.9999404307621447,91.62588849810788
9.256,0.999940135645932,91.54653266457504
9.264,0.9999398466879043,91.46716994461072
9.272,0.9999395639584894,91.3878003391254
9.280000000000001,0.9999392875274722,91.30842384907841
9.288,0.9999390174639744,91.22904047547792
9.296,0.999938753836437,91.14965021938102
9.304,0.9999384967125997,91.07025308189364
9.312000000000001,0.9999382461594827,90.99084906417076
9.32,0.9999380022433659,90.91143816741625
9.328,0.9999377650297709,90.83202039288288
9.336,0.9999375345834394,90.75259574187236
9.344,0.9999373109683136,90.67316421573527
9.352,0.9999370942475152,90.59372581587101
9.36,0.9999368844833252,90.51428054372778
9.368,0.9999366817371625,90.43482840080242
9.376,0.9999364860695629,90.35536938864045
9.384,0.9999362975401571,90.27590350883585
9.392,0.9999361162076502,90.19643076303106
9.4,0.9999359421297982,90.11695115291668
9.408,0.9999357753633865,90.03746468023157
9.416,0.9999356159642085,89.95797134676242
9.424,0.9999354639870408,89.8784711543438
9.432,0.9999353194856221,89.7989641048578
9.44,0.9999351825126294,89.71945020023392
9.448,0.9999350531196542,89.63992944244876
9.456,0.9999349313571806,89.56040183352584
9.464,0.9999348172745584,89.48086737553528
9.472,0.9999347109199821,89.40132607059351
9.48,0.999934612340465,89.32177792086296
9.488,0.9999345215818152,89.2422229285518
9.496,0.999934438688611,89.16266109591344
9.504,0.9999343637041749,89.08309242524632
9.512,0.9999342966705499,89.00351691889335
9.52,0.9999342376284728,88.92393457924163
9.528,0.9999341866173497,88.84434540872184
9.536,0.9999341436752293,88.76474940980798
9.544,0.9999341088387774,88.68514658501664
9.552,0.9999340821432507,88.60553693690667
9.56,0.9999340636224703,88.52592046807848
9.568,0.9999340533087944,88.44629718117359
9.576,0.9999340512330931,88.36666707887386
9.584,0.9999340574247195,88.28703016390108
9.592,0.9999340719114846,88.20738643901606
9.6,0.9999340947196282,88.12773590701813
9.608,0.9999341258737926,88.04807857074425
9.616,0.9999341653969939,87.96841443306843
9.624,0.9999342133105961,87.88874349690074
9.632,0.9999342696342816,87.80906576518666
9.64,0.9999343343860227,87.7293812409061
9.648,0.9999344075820559,87.64968992707259
9.656,0.9999344892368504,87.56999182673226
9.664,0.9999345793630835,87.49028694296302
9.672,0.9999346779716081,87.4105752788734
9.68,0.9999347850714273,87.33085683760157
9.688,0.9999349006696644,87.25113162231432
9.696,0.9999350247715347,87.17139963620589
9.704,0.9999351573803164,87.09166088249677
9.712,0.999935298497322,87.01191536443264
9.72,0.9999354481218699,86.93216308528295
9.728,0.9999356062512545,86.85240404833985
9.736,0.99993577288072,86.77263825691662
9.744,0.9999359480034277,86.69286571434655
9.752,0.9999361316104314,86.61308642398137
9.76,0.9999363236906459,86.53330038918988
9.768,0.9999365242308195,86.45350761335635
9.776,0.9999367332155057,86.37370809987911
9.784,0.9999369506270345,86.29390185216883
9.792,0.9999371764454833,86.21408887364697
9.8,0.9999374106486514,86.13426916774402
9.808,0.9999376532120281,86.05444273789786
9.816,0.9999379041087684,85.97460958755178
9.824,0.9999381633096638,85.89476972015291
9.832,0.9999384307831148,85.81492313915008
9.84,0.9999387064951051,85.7350698479921
9.847999999999999,0.9999389904091728,85.65520985012552
9.856,0.9999392824863855,85.5753431489928
9.864,0.9999395826853131,85.49546974803015
9.872,0.9999398909620024,85.41558965066531
9.879999999999999,0.9999402072699516,85.33570286031542
9.888,0.9999405315600842,85.25580938038468
9.896,0.9999408637807262,85.17590921426215
9.904,0.9999412038775798,85.0960023653193
9.911999999999999,0.9999415517937003,85.01608883690756
