freq,mag,phase
6.0,1.0001445880057478,-50.175962234474994
6.009661952,1.0001702195236672,-50.553625709555945
6.019323904,1.00018529610735,-50.93152143586199
6.028985344,1.000191209131681,-51.3095626155671
6.038647296,1.0001875153729174,-51.687635990577434
6.048309248,1.0001741023504993,-52.06561168000109
6.0579712,1.0001520219120028,-52.443414100109656
6.06763264,1.0001222586218548,-52.82088340140162
6.077294592,1.0000865557914644,-53.19795374347095
6.086956544,1.00004630736643,-53.57451776095155
6.096618496,1.0000039713052558,-53.950592684269516
6.106280448,0.9999612704755738,-54.3261572663804
6.115941888,0.9999207646979551,-54.70114247242447
6.12560384,0.999884315236726,-55.075661131495885
6.135265792,0.9998539753132473,-55.44978727027394
6.144927744,0.9998311565558794,-55.82356961947111
6.154589184,0.9998170259717599,-56.19711436542006
6.164251136,0.9998124387373167,-56.570569544397486
6.173913088,0.9998173336583129,-56.944036999742885
6.18357504,0.9998319473476494,-57.317627855517294
6.19323648,0.9998552088609681,-57.69152486381537
6.202898432,0.9998857179802535,-58.06578893870007
6.212560384,0.999922563628672,-58.44047931585457
6.222222336,0.9999633054869124,-58.81569849037916
6.231884288,1.0000061106720672,-59.19151219374189
6.241545728,1.0000486672264086,-59.567876845896066
6.25120768,1.0000891638600808,-59.94478952498685
6.260869632,1.00012494430346,-60.32227968431372
6.270531584,1.0001546078490844,-60.70012139338154
6.280193024,1.0001765540425656,-61.07836898508285
6.289854976,1.0001894759440415,-61.45687206001142
6.299516928,1.000192922433887,-61.83549146744344
6.30917888,1.0001866319833972,-62.21411205851606
6.318840832,1.0001711204439225,-62.59258622868745
6.328502272,1.0001467422776966,-62.97082816384811
6.338164224,1.000115034934614,-63.34872561042035
6.347826176,1.0000774978392735,-63.72621583170776
6.357488128,1.0000360871292062,-64.10321506418016
6.367149568,0.9999929836052376,-64.47963619083826
6.37681152,0.9999504646325744,-64.85555652995681
6.386473472,0.999910320152213,-65.23092698408009
6.396135424,0.9998749172652357,-65.60581814707191
6.405796864,0.9998459511025926,-65.98035377072365
6.415458816,0.9998250023488109,-66.35458356939883
6.425120768,0.9998131377784365,-66.72856576188464
6.43478272,0.9998108025512474,-67.10254143782659
6.444444672,0.9998182670022899,-67.47648717197603
6.454106112,0.9998352042361291,-67.85069734243712
6.463768064,0.9998606778678844,-68.22511317724452
6.473430016,0.9998933077078634,-68.59997246853047
6.483091968,0.9999316080205607,-68.9753090942103
6.492753408,0.9999735164248149,-69.3511428103382
6.50241536,1.00001680562774,-69.72762213818744
6.512077312,1.000059624634835,-70.1046294309892
6.521739264,1.0000993789362265,-70.48222263348411
6.531401216,1.0001342488404967,-70.86030876809475
6.541062656,1.0001623866297058,-71.23881616223576
6.550724608,1.0001823894466708,-71.61767985791177
6.56038656,1.0001931165091753,-71.99671880317086
6.570048512,1.0001942597437605,-72.37589236303255
6.579709952,1.0001854842015583,-72.75504595815947
6.589371904,1.0001674076585103,-73.13400774901535
6.599033856,1.0001407846302495,-73.51270662189401
6.608695808,1.0001070704661288,-73.89104692592943
6.618357248,1.00006808837881,-74.26890905444698
6.6280192,1.0000256838214072,-74.64625679700067
6.637681152,0.9999820579555413,-75.02310273209658
6.647343104,0.9999392063112549,-75.39936639850274
6.657005056,0.999899756044409,-75.77511839688357
6.666666496,0.9998654255985279,-76.15042955689364
6.676328448,0.9998380260386788,-76.52532406786854
6.6859904,0.9998190849420563,-76.89997106020995
6.695652352,0.9998094643221161,-77.27441561128558
6.705313792,0.9998095385580771,-77.64880259384917
6.714975744,0.9998196103840831,-78.02328069063165
6.724637696,0.9998389686241171,-78.39797751485287
6.734299648,0.9998664765121559,-78.77303886002618
6.7439616,0.9999011233855026,-79.1484676924456
6.75362304,0.999940897819015,-79.52442900665221
6.763284992,0.9999839018413176,-79.90092300329958
6.772946944,1.0000277491497944,-80.27799484978931
6.782608896,1.0000703912392697,-80.65566701362009
6.792270336,1.0001095726119777,-81.0339122622069
6.801932288,1.0001433706362604,-81.4126210312109
6.81159424,1.0001697788363055,-81.79174697786041
6.821256192,1.0001877311073466,-82.17119596053858
6.830917632,1.0001962726135076,-82.5508061965905
6.840579584,1.0001949126095322,-82.93049960370631
6.850241536,1.0001835686326181,-83.31012628557552
6.859903488,1.000163143642445,-83.68957799498544
6.86956544,1.0001343804390157,-84.06870412640477
6.87922688,1.0000987630414058,-84.44743719249166
6.888888832,1.0000582305563896,-84.82570003929132
6.898550784,1.0000147935276702,-85.20341855680093
6.908212736,0.9999706452052094,-85.58061833540633
6.917874176,0.9999281462300682,-85.95724169085527
6.927536128,0.99988926793351,-86.3333362939745
6.93719808,0.9998561222925758,-86.70900548191635
6.946860032,0.999830430679111,-87.08430377469504
6.956521984,0.9998135353322156,-87.45934203451515
6.966183424,0.9998061069769512,-87.8342387829668
6.975845376,0.9998087453082102,-88.20912299338353
6.985507328,0.9998212789884752,-88.58411286852454
6.99516928,0.9998430563174966,-88.95932244462686
7.00483072,0.9998728095466263,-89.33493230911522
7.014492672,0.9999093679769097,-89.7109700662519
7.024154624,0.9999505619001132,-90.0875070475755
7.033816576,0.9999943784877481,-90.46465042657168
7.043478016,1.0000386954690716,-90.84235724382106
7.053139968,1.0000810998746428,-91.2206626670032
7.06280192,1.0001195054929868,-91.59951118158835
7.072463872,1.0001519196236703,-91.97885347623209
7.082125824,1.000176850027924,-92.3585449608454
7.091787264,1.0001926687148737,-92.7385792277122
7.101449216,1.0001987137545039,-93.11871988974495
7.111111168,1.0001950169945621,-93.49892877266397
7.12077312,1.0001812435991897,-93.87902807438486
7.13043456,1.0001582470155022,-94.2589018539358
7.140096512,1.000127264149988,-94.63844919672826
7.149758464,1.000089999583537,-95.01755434116735
7.159420416,1.0000480344750007,-95.3961677915935
7.169082368,1.0000037786187066,-95.77424672833303
7.178743808,0.9999592241172217,-96.1517577174709
7.18840576,0.9999169469794524,-96.5287251103109
7.198067712,0.9998788636875696,-96.9051652707948
7.207729664,0.9998470994847812,-97.28120929112487
7.217391104,0.9998231752133879,-97.65688149838284
7.227053056,0.9998083621263413,-98.03231806503028
7.236715008,0.9998032919074809,-98.4076379646195
7.24637696,0.9998084655395608,-98.78297981404432
7.2560384,0.9998234491242084,-99.15844828000789
7.265700352,0.9998475649413507,-99.53421382380316
7.275362304,0.9998795845760902,-99.91034066491332
7.285024256,0.9999178190127093,-100.28695035451187
7.294686208,0.9999603563843802,-100.66410054409899
7.304347648,1.0000050846514614,-101.04183874615217
7.3140096,1.0000496962618455,-101.42018868584344
7.323671552,1.0000918160192773,-101.79910627464336
7.333333504,1.000129423433493,-102.17853781807524
7.342994944,1.000160484648411,-102.5584991601498
7.352656896,1.0001834404858505,-102.93876059322115
7.362318848,1.0001972516276947,-103.31930662143301
7.3719808,1.000200970329895,-103.70000338745548
7.381642752,1.0001944705255121,-104.08064069834843
7.391304192,1.0001782774695422,-104.46121698574568
7.400966144,1.0001529633192736,-104.84150122965899
7.410628096,1.0001198744044821,-105.22142199135563
7.420290048,1.0000807148572695,-105.60092329957976
7.429951488,1.000037571570723,-105.97986777853112
7.43961344,0.9999924161530719,-106.35825081620844
7.449275392,0.9999477151960161,-106.73610062529654
7.458937344,0.9999057397855456,-107.11339157533804
7.468598784,0.9998686151933021,-107.49016132134005
7.478260736,0.9998382885914773,-107.86653210700638
7.487922688,0.9998161256774796,-108.24255603527861
7.49758464,0.9998035677120761,-108.61836676981468
7.507246592,0.9998009980128392,-108.9941087738392
7.516908032,0.9998086195186601,-109.36988559416604
7.526569984,0.9998262301468844,-109.74586964302705
7.536231936,0.9998527391582601,-110.12209206836224
7.545893888,0.9998867950413863,-110.49880674257989
7.555555328,0.9999267317929178,-110.87595550331677
7.56521728,0.9999705672485838,-111.25369449721704
7.574879232,1.0000160444250117,-111.63204018174926
7.584541184,1.0000607225926965,-112.01096727389947
7.594203136,1.0001024500373443,-112.39046940077172
7.603864576,1.000139120064967,-112.77052391447613
7.613526528,1.0001686696377108,-113.15100618593276
7.62318848,1.0001897740956773,-113.53184016028673
7.632850432,1.0002012585813944,-113.91288366234852
7.642511872,1.0002026210615897,-114.29404091415898
7.652173824,1.000193639950983,-114.67520079675934
7.661835776,1.0001747835776285,-115.05616662680661
7.671497728,1.0001471026601023,-115.43682272055054
7.681159168,1.000111940882124,-115.81714820616526
7.69082112,1.0000711684408012,-116.19693547815461
7.700483072,1.0000266896319856,-116.5762030541792
7.710145024,0.9999809002205899,-116.95490818005237
7.719806976,0.999936108573161,-117.3330120111441
7.729468416,0.9998946152821324,-117.71058357098887
7.739130368,0.999858561786161,-118.0876824392888
7.74879232,0.9998297118723652,-118.46435796770584
7.758454272,0.999809598772269,-118.84071541298722
7.768115712,0.9997992083148047,-119.2169295535854
7.777777664,0.9997991396420092,-119.59304346407923
7.787439616,0.9998093722538333,-119.96925449114575
7.797101568,0.9998294260874591,-120.34569927933653
7.80676352,0.9998582715201533,-120.7224426969199
7.81642496,0.9998944729443463,-121.09962213209826
7.826086912,0.999936100456539,-121.47737071913406
7.835748864,0.9999810607761034,-121.8556355702282
7.845410816,1.0000270853475302,-122.23455828401003
7.855072256,1.0000718283338506,-122.61406217578303
7.864734208,1.0001130741937003,-122.99414547193552
7.87439616,1.0001486107845186,-123.37474837791774
7.884058112,1.0001767245764606,-123.75579851989409
7.893719552,1.000195769873706,-124.13714387391187
7.903381504,1.0002049662273067,-124.51868924388967
7.913043456,1.0002036802321812,-124.90033291834581
7.922705408,1.0001921557262405,-125.28187801100628
7.93236736,1.0001708278816461,-125.66322054168401
7.9420288,1.0001408325319865,-126.04424552741038
7.951690752,1.0001035888665932,-126.42486843495972
7.961352704,1.000061188474702,-126.8049717773562
7.971014656,1.0000155779007227,-127.1845242578962
7.980676096,0.9999692383800813,-127.56351021478662
7.990338048,0.9999243687494274,-127.94187893713362
8.0,0.9998834615335231,-128.319731567353
8.009661952,0.9998486251998625,-128.69708000195442
8.019323904,0.999821283880999,-129.07407928749035
8.028985344,0.9998032040209034,-129.45077209301317
8.038647296,0.9997952413046506,-129.82730508206984
8.048309248,0.9997976927226431,-130.20381811647042
8.0579712,0.999810538907579,-130.5804198005395
8.06763264,0.9998331215433339,-130.9572982741572
8.077294592,0.999864315221454,-131.33453412709358
8.086956544,0.999902517850446,-131.7122176681201
8.096618496,0.9999457672238945,-132.0904671082087
8.106280448,0.999991809407911,-132.46930613184097
8.115941888,1.0000383703492606,-132.84874498957313
8.12560384,1.0000831262979537,-133.22881918110804
8.135265792,1.0001236041406807,-133.60945898004945
8.144927744,1.0001579753177336,-133.9905848227998
8.154589184,1.000184286487185,-134.37212489781368
8.164251136,1.0002013096297784,-134.753967269785
8.173913088,1.0002081390001705,-135.13597541977992
8.18357504,1.0002043097857438,-135.51803337762226
8.19323648,1.0001901682909808,-135.89996962504335
8.202898432,1.0001662965527185,-136.2816769281227
8.212560384,1.0001339491855332,-136.66306765230456
8.222222336,1.000094859012092,-137.04394479015497
8.231884288,1.0000507394652756,-137.4243259123537
8.241545728,1.0000041962636133,-137.80412904831428
8.25120768,0.9999573147830191,-138.1833397866693
8.260869632,0.9999126890202187,-138.5619893614858
8.270531584,0.9998724760214163,-138.94008249285983
8.280193024,0.999838748184704,-139.31768384686674
8.289854976,0.9998132932552114,-139.69496051577798
8.299516928,0.9997973247236837,-140.07192975460953
8.30917888,0.9997917650133783,-140.44878324830825
8.318840832,0.9997967796722418,-140.82564088769067
8.328502272,0.9998122722024974,-141.2026558363297
8.338164224,0.9998374605101458,-141.57994261539503
8.347826176,0.9998708732729475,-141.9576269935264
8.357488128,0.9999110333741283,-142.335808244981
8.367149568,0.9999557760838957,-142.7145473339369
8.37681152,1.000002869856393,-143.09390450208633
8.386473472,1.0000498784403629,-143.47388689057354
8.396135424,1.0000943920837189,-143.8544515301611
8.405796864,1.000134225307814,-144.2356157283765
8.415458816,1.0001672339616878,-144.61726771239708
8.425120768,1.0001917759522116,-144.99927150215441
8.43478272,1.00020659687375,-145.3815823076043
8.444444672,1.000210923143799,-145.76399950313964
8.454106112,1.000204520583751,-146.14647159840243
8.463768064,1.0001877249640456,-146.52875323380283
8.473430016,1.000161333752246,-146.9107914072092
8.483091968,1.0001266799452049,-147.29243087713897
8.492753408,1.0000856178982163,-147.67360062000455
8.50241536,1.0000401421408818,-148.05424908793043
8.512077312,0.9999925897971111,-148.43425441608375
8.521739264,0.9999453391487247,-148.8136661784119
8.531401216,0.999900911160371,-149.19251843711518
8.541062656,0.9998615593406003,-149.5708080458447
8.550724608,0.9998291308254132,-149.94865698486302
8.56038656,0.9998055648220187,-150.32615995234286
8.570048512,0.9997918118617528,-150.7034302672578
8.579709952,0.9997887397804086,-151.08060081979812
8.589371904,0.9997964072384752,-151.45778764863536
8.599033856,0.9998145717125215,-151.83515194109793
8.608695296,0.9998422217147307,-152.2128664126406
8.61835776,0.9998780108575882,-152.59095830002548
8.6280192,0.9999200492377546,-152.96962470430765
8.637681664,0.9999661852307928,-153.34881663412398
8.647343104,1.000014112702145,-153.72865044277532
8.657004544,1.0000615035469287,-154.10913770101166
8.666667008,1.0001057841311982,-154.49022064188046
8.676328448,1.0001446956819204,-154.8718680419526
8.685989888,1.000176265893003,-155.25397384362697
8.695652352,1.0001988993877744,-155.63643883986694
8.705313792,1.0002115138467915,-156.0191527449931
8.714976256,1.0002132953277947,-156.40198163628372
8.724637696,1.0002042237298432,-156.78479922170888
8.734299136,1.000184810713519,-157.16738065214668
8.7439616,1.000155826572909,-157.54970851468642
8.75362304,1.000118990917179,-157.93163726221235
8.763285504,1.0000759733828548,-158.31302464981886
8.772946944,1.0000291106687922,-158.69384302190318
8.782608384,0.9999807206669794,-159.0740518063546
8.792270848,0.9999332637284626,-159.45365950466382
8.801932288,0.9998892019210912,-159.8326707207142
8.811593728,0.9998507266377756,-160.2111495515466
8.821256192,0.9998198930068264,-160.58920400981157
8.830917632,0.9997981118568856,-160.96691794195652
8.840580096,0.999786716848361,-161.34441399006266
8.850241536,0.9997862235168964,-161.7218447044481
8.859902976,0.9997965926551663,-162.09933944349345
8.86956544,0.9998174387133587,-162.4770900767004
8.87922688,0.9998475732247065,-162.8551535110767
8.888889344,0.9998855646333216,-163.2336872695221
8.898550784,0.999929572102751,-163.61272723455002
8.908212224,0.9999770003627345,-163.99241674002204
8.917874688,1.0000258008111151,-164.37270339020893
8.927536128,1.0000732626882878,-164.75365909183154
8.937197568,1.0001172036058519,-165.13519975209843
8.946860032,1.000155180412698,-165.51732091719956
8.956521472,1.000185185919163,-165.89986555826226
8.966183936,1.0002058524404498,-166.28275671771817
8.975845376,1.0002160711145187,-166.66586233032018
8.985506816,1.0002152560957451,-167.04899685588302
8.99516928,1.0002034945146905,-167.43212455069354
9.00483072,1.0001812572627462,-167.81503728692383
9.014493184,1.0001498571204432,-168.19758459941943
9.024154624,1.0001107974854089,-168.57971106847762
9.033816064,1.0000659481349357,-168.9612780477985
9.043478528,1.0000178045010182,-169.342283425975
9.053139968,0.999968609074475,-169.72264652188696
9.062802432,0.9999210078305366,-170.10235598410756
9.072463872,0.9998772793154286,-170.48153999766842
9.082125312,0.9998399623857769,-170.86016500034287
9.091787776,0.9998106904418331,-171.23838951529794
9.101449216,0.9997910397220087,-171.61627946497333
9.111110656,0.9997819868224314,-171.99400791610455
9.12077312,0.9997841164640218,-172.37169105691623
9.13043456,0.999797302524316,-172.74949107554167
9.140097024,0.999820768963824,-173.12754422756697
9.149758464,0.9998534446703892,-173.50595723359243
9.159419904,0.9998936496717187,-173.88483827961173
9.169082368,0.9999393299739487,-174.26430127921697
9.178743808,0.999988158418266,-174.64440670375166
9.188406272,1.0000377154205842,-175.02514053065315
9.198067712,1.0000853651764685,-175.40651389832718
9.207729152,1.0001286942548036,-175.78851181521787
9.217391616,1.000165548399945,-176.17104719760957
9.227053056,1.0001939094172252,-176.55397957819025
9.236714496,1.0002124455090309,-176.93725786470364
9.24637696,1.0002202599555048,-177.32070471377858
9.2560384,1.000216876637618,-177.70418560736272
9.265700864,1.0002022949731035,-178.0875556906228
9.275362304,1.000177375691358,-178.47071307294325
9.285023744,1.000143547369954,-178.85348488283876
9.294686208,1.0001021955178127,-179.23577002305976
9.304347648,1.000055662570028,-179.6175077654664
9.314010112,1.0000061991766505,-179.99861161570195
9.323671552,0.9999563829494151,179.62089855636574
9.333332992,0.9999086642253004,179.24107042000057
9.342995456,0.9998655838488635,178.86179743391747
9.352656896,0.9998293491828235,178.48302832498806
9.362318336,0.999801727354838,178.10469131701
9.3719808,0.9997842809974481,177.72662970675367
9.38164224,0.9997777846871161,177.3487204169075
9.391304704,0.9997824841296336,176.97083010456348
9.400966144,0.999798498956586,176.59277730032116
9.410627584,0.9998246511827419,176.21443969833192
9.420290048,0.9998598301665368,175.83568554070777
9.429951488,0.9999022564539313,175.45643392458473
9.439613952,0.9999497060810462,175.0766039379646
9.449275392,0.9999997322309985,174.6961243867542
9.458936832,1.0000498347772524,174.3149699276345
9.468599296,1.0000975165718213,173.93318029960085
9.478260736,1.0001402839723195,173.55080984844702
9.4879232,1.0001758882020488,173.16789357724295
9.49758464,1.0002024694906657,172.78457723882528
9.50724608,1.0002189483129764,172.40094760947832
9.516908544,1.0002242389142464,172.01719685299935
9.526569984,1.0002179444269093,171.63342143178903
9.536231424,1.000200694043107,171.24981041575748
9.545893888,1.0001730573612821,170.86647719765256
9.555555328,1.000136682663115,170.48354009407473
9.565217792,1.0000931786853675,170.10111331773086
9.574879232,1.0000448400484832,169.71927021191698
9.584540672,0.9999942997111377,169.33808402728903
9.594203136,0.9999438653081602,168.95753851069844
9.603864576,0.9998961506306049,168.57762196991717
9.61352704,0.9998538057581572,168.19828449498658
9.62318848,0.9998188190929739,167.81943519867127
9.63284992,0.9997930589787135,167.4409807744229
9.642512384,0.9997778278159496,167.06281494871953
9.652173824,0.9997738685792773,166.6847436358977
9.661835264,0.9997814547449024,166.3066478808188
9.671497728,0.9998001570519021,165.92837187340638
9.681159168,0.9998291147892251,165.5497755414294
9.690821632,0.9998668657076424,165.17074183156151
9.700483072,0.9999114174676189,164.79117063597937
9.710144512,0.9999606059337245,164.41097830027556
9.719806976,1.0000117244561577,164.03013217747494
9.729468416,1.0000623407755866,163.6486175020656
9.73913088,1.0001098687071515,163.26643426236353
9.74879232,1.0001518341411655,162.88369642004727
9.75845376,1.0001860927090596,162.5004098906039
9.768116224,1.0002109423710641,162.11677555501356
9.777777664,1.000225038438183,161.73285805049565
9.787439104,1.0002277389690761,161.3488295731493
9.797101568,1.0002186606225454,160.96483551601284
9.806763008,1.000198583479245,160.58101483849669
9.816425472,1.0001682588604193,160.19752126857315
9.826086912,1.0001292555410988,159.81445946408
9.835748352,1.000083559518958,159.43195219471443
9.845410816,1.0000336387600541,159.05004409272843
9.855072256,0.9999819381015126,158.6687929271232
