freq,mag,phase
6.0,0.9999999999999999,26.991786815077464
6.008,1.0,26.775227986288357
6.016,1.0,26.55863545380375
6.024,1.0,26.34200931852794
6.032,0.9999999999999999,26.125349681348734
6.04,1.0,25.908656643138013
6.048,0.9999999999999999,25.69193030475228
6.056,0.9999998519771642,25.475170767033237
6.064,0.9999991369281962,25.258378130808314
6.072,0.9999984438160476,25.041552496891246
6.08,0.9999977723309006,24.824693966082574
6.088,0.999997122164658,24.607802639170238
6.096,0.9999964930109451,24.390878616930113
6.104,0.9999958845651122,24.173922000126538
6.112,0.9999952965242381,23.956932889512863
6.12,0.9999947285871306,23.739911385832002
6.128,0.99999418045433,23.52285758981694
6.136,0.9999936518281103,23.3057716021913
6.144,0.999993142412482,23.08865352366986
6.152,0.9999926519131943,22.871503454959065
6.16,0.9999921800377354,22.654321496757593
6.168,0.9999917264953365,22.437107749756862
6.176,0.9999912909969719,22.21986231464154
6.184,0.9999908732553618,22.002585292090075
6.192,0.9999904729849737,21.785276782775217
6.2,0.9999900899020229,21.56793688736455
6.208,0.9999897237244764,21.350565706520943
6.216,0.9999893741720518,21.133163340903124
6.224,0.9999890409662202,20.91572989116616
6.232,0.999988723830207,20.69826545796195
6.24,0.9999884224889934,20.48077014193975
6.248,0.9999881366693177,20.26324404374663
6.256,0.9999878660996763,20.045687264028025
6.264,0.9999876105103236,19.828099903428168
6.272,0.9999873696332755,19.610482062590606
6.28,0.9999871432023077,19.39283384215869
6.288,0.9999869309529587,19.175155342776026
6.296,0.9999867326225295,18.957446665086994
6.304,0.9999865479500837,18.73970790973717
6.312,0.9999863766764505,18.521939177373834
6.32,0.9999862185442226,18.304140568646414
6.328,0.9999860732977585,18.086312184206978
6.336,0.9999859406831823,17.868454124710638
6.344,0.9999858204483844,17.650566490816054
6.352,0.9999857123430218,17.432649383185872
6.36,0.9999856161185184,17.214702902487126
6.368,0.9999855315280652,16.996727149391756
6.376,0.9999854583266209,16.778722224576995
6.384,0.9999853962709109,16.560688228725787
6.392,0.9999853451194288,16.34262526252726
6.4,0.9999853046324355,16.12453342667712
6.408,0.9999852745719595,15.906412821878071
6.416,0.9999852547017967,15.688263548840277
6.424,0.9999852447875099,15.470085708281685
6.432,0.9999852445964298,15.251879400928493
6.44,0.9999852538976529,15.033644727515536
6.448,0.9999852724620426,14.815381788786686
6.456,0.9999853000622286,14.597090685495218
6.464,0.9999853364726058,14.37877151840424
6.472,0.9999853814693342,14.160424388287016
6.48,0.9999854348303394,13.942049395927384
6.4879999999999995,0.9999854963353091,13.72364664212015
6.496,0.9999855657656963,13.505216227671298
6.504,0.9999856429047156,13.28675825339864
6.5120000000000005,0.9999857275373439,13.0682728201318
6.52,0.9999858194503192,12.849760028712957
6.5280000000000005,0.9999859184321396,12.631219979996782
6.536,0.9999860242730628,12.412652774851182
6.5440000000000005,0.9999861367651052,12.194058514157215
6.552,0.9999862557020404,11.97543729880984
6.5600000000000005,0.9999863808793985,11.756789229717809
6.568,0.9999865120944651,11.538114407804395
6.5760000000000005,0.9999866491462804,11.319412934007284
6.584,0.9999867918356371,11.100684909279304
6.592,0.9999869399650805,10.881930434588302
6.6,0.9999870933389066,10.663149610917742
6.608,0.9999872517631605,10.444342539266838
6.616,0.9999874150456353,10.225509320650863
6.624,0.9999875829958721,10.006650056101405
6.632,0.999987755425156,9.787764846666665
6.64,0.9999879321465176,9.568853793411641
6.648,0.9999881129747289,9.349916997418445
6.656,0.9999882977263035,9.130954559786506
6.664,0.9999884862194948,8.911966581632806
6.672,0.9999886782742942,8.692953164092112
6.68,0.9999888737124297,8.473914408317183
6.688,0.9999890723573643,8.254850415479009
6.696,0.9999892740342944,8.03576128676698
6.704,0.9999894785701479,7.816647123389101
6.712,0.9999896857935833,7.59750802657217
6.72,0.9999898955349872,7.378344097561974
6.728,0.9999901076264733,7.159155437623452
6.736,0.9999903219018801,6.939942148040853
6.744,0.9999905381967693,6.720704330117907
6.752,0.9999907563484252,6.501442085177968
6.76,0.999990976195851,6.282155514564154
6.768,0.9999911975797687,6.0628447196394815
6.776,0.9999914203426169,5.843509801786985
6.784,0.9999916443285487,5.624150862409847
6.792,0.99999186938343,5.404768002931487
6.8,0.9999920953548385,5.185361324795674
6.808,0.9999923220920611,4.965930929466616
6.816,0.999992549446093,4.746476918429036
6.824,0.999992777269635,4.526999393188245
6.832,0.9999930054170926,4.307498455270216
6.84,0.9999932337445735,4.0879742062216335
6.848,0.9999934621098878,3.8684267476099268
6.856,0.9999936903725444,3.6488561810233304
6.864,0.9999939183937491,3.429262608070901
6.872,0.9999941460364056,3.2096461303825294
6.88,0.999994373165111,2.990006849608962
6.888,0.9999945996461563,2.7703448674217936
6.896,0.999994825347524,2.550660285513456
6.904,0.9999950501388869,2.3309532055972064
6.912,0.9999952738916065,2.1112237294070932
6.92,0.9999954964787316,1.8914719586979152
6.928,0.9999957177749978,1.6716979952451818
6.936,0.9999959376568255,1.4519019408450462
6.944,0.9999961560023183,1.2320838973142383
6.952,0.9999963726912633,1.0122439664899923
6.96,0.9999965876051289,0.7923822502299489
6.968,0.999996800627064,0.5724988504120704
6.976,0.9999970116418977,0.35259386893451855
6.984,0.9999972205361373,0.13266740771554494
6.992,0.9999974271979692,-0.08728043130664379
7.0,0.9999976315172571,-0.3072495461740252
7.008,0.9999978333855422,-0.5272398349089038
7.016,0.9999980326960413,-0.7472511955140761
7.024,0.9999982293436487,-0.9672835259730133
7.032,0.9999984232249348,-1.1873367242500126
7.04,0.9999986142381452,-1.4074106882904174
7.048,0.9999988022832035,-1.6275053160208066
7.056,0.9999989872617078,-1.8476205053492125
7.064,0.9999991690769338,-2.0677561541653384
7.072,0.9999993476338342,-2.28791216034079
7.08,0.9999995228390403,-2.5080884217293393
7.088,0.9999996946008611,-2.7282848361671475
7.096,0.9999998628292862,-2.9485013014730588
7.104,0.9999999999999999,-3.168737715448864
7.112,0.9999999999999999,-3.3889939758795835
7.12,1.0,-3.609269980533773
7.128,1.0,-3.8295656271638276
7.136,1.0,-4.0498808135063005
7.144,1.0,-4.270215437282212
7.152,1.0,-4.490569396197418
7.16,0.9999999999999999,-4.71094258794294
7.168,1.0,-4.931334910195325
7.176,1.0,-5.151746260617002
7.184,1.0,-5.372176536856693
7.192,0.9999999999999998,-5.5926256365497515
7.2,1.0,-5.813093457318599
7.208,1.0,-6.033579896773114
7.216,0.9999999999999999,-6.254084852511024
7.224,1.0,-6.4746082221183805
7.232,1.0,-6.695149903169935
7.24,1.0,-6.915709793229612
7.248,0.9999999999999999,-7.136287789850937
7.256,0.9999999999999999,-7.356883790577499
7.264,0.9999999999999999,-7.577497692943424
7.272,0.9999999999999999,-7.7981293944738015
7.28,1.0,-8.018778792685206
7.288,1.0,-8.239445785086158
7.296,0.9999999999999999,-8.460130269177597
7.304,1.0,-8.680832142453397
7.312,1.0,-8.901551302400835
7.32,0.9999999999999999,-9.12228764650111
7.328,0.9999999999999999,-9.343041072229829
7.336,0.9999999999999999,-9.563811477057527
7.344,0.9999999999999999,-9.784598758450166
7.352,1.0,-10.005402813869631
7.36,0.9999999999999999,-10.226223540774251
7.368,1.0,-10.447060836619308
7.376,0.9999999999999999,-10.667914598857527
7.384,1.0,-10.888784724939589
7.392,1.0,-11.109671112314631
7.4,1.0,-11.330573658430735
7.4079999999999995,0.9999999999999999,-11.551492260735392
7.416,1.0,-11.772426816676116
7.4239999999999995,1.0,-11.993377223700627
7.432,0.9999999999999999,-12.214343379257718
7.4399999999999995,1.0,-12.435325180797262
7.448,0.9999999999999999,-12.656322525771108
7.4559999999999995,1.0,-12.877335311633056
7.464,1.0,-13.098363435839701
7.4719999999999995,1.0,-13.319406795850403
7.48,0.9999999999999999,-13.540465289128075
7.4879999999999995,1.0,-13.761538813139127
7.496,1.0,-13.982627265354186
7.504,1.0,-14.20373054324801
7.5120000000000005,1.0,-14.424848544300158
7.52,1.0,-14.645981165994806
7.5280000000000005,1.0,-14.8671283058214
7.536,1.0,-15.088289861274388
7.5440000000000005,1.0,-15.30946572985378
7.552,1.0,-15.530655809064816
7.5600000000000005,1.0,-15.751859996418423
7.568,0.9999999999999998,-15.973078189430819
7.5760000000000005,1.0,-16.194310285623835
7.584,1.0,-16.415556182524444
7.5920000000000005,1.0,-16.636815777664918
7.6,1.0,-16.85808896858229
7.6080000000000005,1.0,-17.079375652818378
7.616,1.0,-17.30067572791903
7.6240000000000006,1.0,-17.521989091434087
7.632,0.9999999648728795,-17.74331564091646
7.640000000000001,0.9999997787262525,-17.96465527392184
7.648,0.9999995872883939,-18.186007888007715
7.656000000000001,0.9999993906122558,-18.407373380732835
7.664,0.9999991887537734,-18.628751649655968
7.672,0.9999989817719109,-18.850142592335256
7.68,0.9999987697287175,-19.071546106326792
7.688,0.9999985526893782,-19.292962089183483
7.696,0.9999983307222675,-19.514390438453685
7.704,0.9999981038990059,-19.735831051679614
7.712,0.9999978722945154,-19.957283826395773
7.72,0.9999976359870774,-20.178748660127063
7.728,0.9999973950583897,-20.40022545038691
7.736,0.9999971495936293,-20.62171409467505
7.744,0.9999968996815097,-20.843214490475276
7.752,0.9999966454143444,-21.064726535252966
7.76,0.9999963868881082,-21.286250126452387
7.768,0.9999961242025006,-21.50778516149384
7.776,0.9999958574610107,-21.72933153777058
7.784,0.9999955867709794,-21.950889152645555
7.792,0.9999953122436674,-22.172457903447835
7.8,0.9999950339943187,-22.394037687468906
7.808,0.999994752142227,-22.615628401958652
7.816,0.9999944668108016,-22.837229944121106
7.824,0.9999941781276338,-23.05884221110993
7.832,0.9999938862245628,-23.28046510002362
7.84,0.999993591237741,-23.502098507900424
7.848,0.9999932933076998,-23.723742331712963
7.856,0.9999929925794142,-23.945396468362528
7.864,0.9999926892023667,-24.167060814673096
7.872,0.9999923833306094,-24.388735267385005
7.88,0.999992075122825,-24.610419723148212
7.888,0.9999917647423892,-24.83211407851534
7.896,0.9999914523574257,-25.053818229934265
7.904,0.9999911381408636,-25.275532073740315
7.912,0.9999908222704901,-25.497255506148218
7.92,0.9999905049290017,-25.718988423243466
7.928,0.9999901863040506,-25.940730720973455
7.936,0.9999898665882891,-26.16248229513814
7.944,0.9999895459794096,-26.384243041380245
7.952,0.9999892246801789,-26.606012855175102
7.96,0.99998890289847,-26.82779163182003
7.968,0.999988580847286,-27.049579266423322
7.976,0.9999882587447805,-27.271375653892697
7.984,0.9999879368142693,-27.493180688923434
7.992,0.999987615284238,-27.714994265985894
8.0,0.9999872943883378,-27.936816279312836
8.008,0.9999869743653786,-28.158646622885975
8.016,0.9999866554593085,-28.380485190422455
8.024000000000001,0.9999863379191856,-28.60233187536047
8.032,0.9999860219991421,-28.82418657084474
8.04,0.9999857079583323,-29.04604916971166
8.048,0.9999853960608733,-29.267919564473722
8.056000000000001,0.999985086575773,-29.489797647303526
8.064,0.9999847797768423,-29.711683310017772
8.072,0.999984475942595,-29.933576444060662
8.08,0.9999841753561352,-30.155476940486896
8.088000000000001,0.9999838783050239,-30.377384689944318
8.096,0.9999835850811343,-30.599299582656517
8.104,0.999983295980487,-30.821221508405053
8.112,0.9999830113030673,-31.04315035651136
8.120000000000001,0.9999827313526256,-31.265086015818436
8.128,0.9999824564364539,-31.487028374672718
8.136,0.9999821868651468,-31.708977320905614
8.144,0.9999819229523363,-31.93093274181507
8.152000000000001,0.9999816650144084,-32.152894524147065
8.16,0.9999814133701925,-32.374862554077346
8.168,0.9999811683406302,-32.59683671719352
8.176,0.9999809302484196,-32.818816898476946
8.184000000000001,0.9999806994176317,-33.04080298228514
8.192,0.999980476173303,-33.262794852334764
8.2,0.9999802608410029,-33.484792391685055
8.208,0.9999800537463733,-33.70679548272169
8.216000000000001,0.9999798552146392,-33.92880400714143
8.224,0.9999796655700954,-34.15081784593768
8.232,0.9999794851355646,-34.372836879387016
8.24,0.9999793142318265,-34.594860987036604
8.248000000000001,0.9999791531770224,-34.81689004769274
8.256,0.9999790022860299,-35.03892393941089
8.264,0.9999788618698133,-35.26096253948721
8.272,0.9999787322347465,-35.483005724451395
8.280000000000001,0.9999786136819099,-35.705053370061236
8.288,0.9999785065063672,-35.927105351299204
8.296,0.9999784109964112,-36.14916154237107
8.304,0.9999783274327969,-36.371221816706345
8.312,0.9999782560879465,-36.59328604696114
8.32,0.9999781972251409,-36.81535410502362
8.328,0.9999781510976923,-37.03742586202155
8.336,0.9999781179481029,-37.25950118833313
8.344,0.9999780980072128,-37.48157995359988
8.352,0.9999780914933384,-37.703662026743274
8.36,0.9999780986114049,-37.92574727598359
8.368,0.999978119552075,-38.147835568862696
8.376,0.9999781544908805,-38.369926772269274
8.384,0.9999782035873561,-38.59202075246816
8.392,0.9999782669841837,-38.814117375132284
8.4,0.9999783448063463,-39.03621650537889
8.408,0.9999784371603021,-39.258318007808334
8.416,0.9999785441331767,-39.48042174654731
8.424,0.9999786657919839,-39.70252758529467
8.432,0.9999788021828737,-39.924635387371595
8.44,0.9999789533304198,-40.14674501577441
8.448,0.9999791192369442,-40.368856333231484
8.456,0.9999792998818889,-40.590969202262826
8.464,0.9999794952212373,-40.81308348524335
8.472,0.9999797051869895,-41.03519904446869
8.48,0.999979929686702,-41.25731574222452
8.488,0.9999801686030848,-41.47943344085773
8.496,0.9999804217936739,-41.70155200285104
8.504,0.9999806890905755,-41.92367129089882
8.512,0.9999809703002852,-42.14579116798589
8.52,0.9999812652035928,-42.36791149746707
8.528,0.9999815735555668,-42.59003214314887
8.536,0.9999818950856304,-42.81215296937154
8.544,0.9999822294977249,-43.034273841092386
8.552,0.9999825764705671,-43.256394623968916
8.56,0.9999829356579992,-43.47851518444226
8.568,0.9999833066894332,-43.70063538981974
8.576,0.9999836891703903,-43.92275510835706
8.584,0.9999840826831359,-44.144874209338546
8.592,0.9999844867874083,-44.366992563156394
8.6,0.9999849010212383,-44.589110041387066
8.608,0.9999853249018618,-44.811226516865716
8.616,0.9999857579267177,-45.033341863757165
8.624,0.9999861995745326,-45.25545595762408
8.632,0.9999866493064827,-45.47756867549066
8.64,0.9999871065674332,-45.69967989590316
8.648,0.9999875707872498,-45.921789498984936
8.656,0.9999880413821713,-46.14389736648768
8.664,0.9999885177562448,-46.36600338183677
8.672,0.999988999302809,-46.588107430172045
8.68,0.9999894854060268,-46.810209398382305
8.688,0.9999899754424524,-47.032309175134785
8.696,0.9999904687826291,-47.25440665089802
8.704,0.9999909647927098,-47.476501717959394
8.712,0.9999914628360909,-47.698594270435905
8.72,0.9999919622750526,-47.92068420427946
8.728,0.9999924624723975,-48.142771417275405
8.736,0.999992962793077,-48.36485580903561
8.744,0.9999934626058018,-48.58693728098481
8.752,0.999993961284625,-48.809015736341934
8.76,0.999994458210492,-49.03109108009474
8.768,0.9999949527727503,-49.25316321896987
8.776,0.9999954443706097,-49.475232061396724
8.784,0.9999959324145524,-49.69729751746706
8.792,0.9999964163276784,-49.91935949888908
8.8,0.999996895546989,-50.14141791893787
8.808,0.999997369524599,-50.363472692400826
8.815999999999999,0.9999978377288717,-50.58552373552013
8.824,0.9999982996454813,-50.80757096593135
8.832,0.9999987547783861,-51.02961430259894
8.84,0.9999992026507234,-51.251653665749465
8.847999999999999,0.9999996428056145,-51.47368897680239
8.856,1.0,-51.695720158299004
8.864,1.0,-51.9177471338297
8.872,0.9999999999999999,-52.13976982796056
8.879999999999999,0.9999999999999999,-52.3617881661591
8.888,1.0,-52.58380207471955
8.896,1.0,-52.80581148068821
8.904,1.0,-53.027816311789294
8.911999999999999,1.0,-53.24981649635155
8.92,1.0,-53.47181196323565
8.928,1.0,-53.69380264176297
8.936,0.9999999999999999,-53.91578846164598
8.943999999999999,1.0,-54.13776935292058
8.952,1.0,-54.359745245880255
8.96,1.0,-54.58171607101239
8.968,1.0,-54.80368175893729
8.975999999999999,1.0,-55.02564224034974
8.984,1.0,-55.24759744596296
8.992,1.0,-55.469547306455596
9.0,1.0,-55.69149175242155
9.008,1.0,-55.91343071432289
9.016,0.9999999999999999,-56.13536412244562
9.024000000000001,0.9999999999999999,-56.35729190685839
9.032,1.0,-56.57921399737441
9.04,1.0,-56.80113032351647
9.048,1.0,-57.02304081448488
9.056000000000001,1.0,-57.244945399128035
9.064,1.0,-57.466844005916506
9.072,1.0,-57.68873656291966
9.08,1.0000000000000002,-57.91062299778508
9.088000000000001,1.0,-58.13250323772057
9.096,1.0,-58.354377209478976
9.104,1.0,-58.576244839345634
9.112,1.0,-58.79810605312783
9.120000000000001,0.9999999999999999,-59.01996077614674
9.128,0.9999999999999999,-59.2418089332317
9.136,0.9999999999999999,-59.46365044871657
9.144,1.0,-59.685485246437736
9.152000000000001,0.9999999999999999,-59.90731324973424
9.16,1.0,-60.12913438144958
9.168,0.9999999999999999,-60.350948563935226
9.176,1.0,-60.572755719055465
9.184000000000001,1.0,-60.794555768193625
9.192,0.9999999999999999,-61.01634863225973
9.2,1.0,-61.23813423169943
9.208,1.0,-61.459912486503725
9.216000000000001,1.0,-61.68168331621967
9.224,0.9999999999999999,-61.90344663996215
9.232,1.0,-62.12520237642655
9.24,0.9999999999999999,-62.346950443901676
9.248000000000001,1.0,-62.568690760283566
9.256,1.0,-62.790423243089855
9.264,1.0,-63.012147809474556
9.272,1.0,-63.233864376243204
9.280000000000001,1.0,-63.45557285986814
9.288,1.0,-63.677273176504286
9.296,0.9999999999999999,-63.898965242005225
9.304,1.0,-64.12064897193896
9.312000000000001,1.0,-64.34232428160406
9.32,0.9999999999999999,-64.56399108604583
9.328,1.0,-64.78564930007248
9.336,0.9999999999999999,-65.00729883827121
9.344,1.0,-65.22893961502393
9.352,0.9999999999999999,-65.45057154452357
9.36,1.0,-65.67219454078935
9.368,1.0,-65.89380851768274
9.376,1.0,-66.11541338892235
9.384,1.0,-66.33700906809952
9.392,1.0,-66.55859546869277
9.4,1.0000000000000002,-66.78017250408278
9.408,0.9999999999999999,-67.00174008756639
9.416,1.0,-67.22329813237104
9.424,0.9999999999999999,-67.44484655166806
9.432,1.0,-67.66638525858671
9.44,1.0,-67.88791416622676
9.448,1.0,-68.10943318767177
9.456,1.0,-68.33094223600125
9.464,0.9999999999999998,-68.5524412243032
9.472,1.0,-68.77393006568562
9.48,1.0,-68.99540867328841
9.488,1.0,-69.21687696029426
9.496,0.9999999999999999,-69.43833483993983
9.504,1.0,-69.65978222552606
9.512,1.0,-69.88121903042874
9.52,0.9999999999999999,-70.10264516810813
9.528,1.0,-70.32406055211888
9.536,0.9999999999999999,-70.5454650961192
9.544,0.9999999999999999,-70.76685871388001
9.552,1.0,-70.9882413192935
9.56,1.0,-71.2096128263819
9.568,1.0,-71.43097314930534
9.576,1.0,-71.65232220237002
9.584,1.0,-71.8736599000356
9.592,1.0,-72.09498615692287
9.6,1.0,-72.31630088782055
9.608,1.0,-72.53760400769251
9.616,1.0,-72.75889543168408
9.624,1.0,-72.98017507512877
9.632,0.9999999999999999,-73.20144285355417
9.64,0.9999999999999999,-73.42269868268816
9.648,0.9999999999999999,-73.64394247846447
9.656,0.9999999708567288,-73.8651741570284
9.664,0.9999998255163401,-74.086393634742
9.672,0.9999996830586275,-74.3076008281894
9.68,0.9999995435791763,-74.52879565418156
9.688,0.9999994071706626,-74.74997802976146
9.696,0.999999273922901,-74.97114787220825
9.704,0.9999991439228907,-75.19230509904213
9.712,0.9999990172548626,-75.41344962802827
9.72,0.9999988940003258,-75.6345813771814
9.728,0.9999987742381131,-75.8557002647694
9.736,0.9999986580444271,-76.07680620931745
9.744,0.9999985454928845,-76.29789912961157
9.752,0.9999984366545622,-76.51897894470243
9.76,0.9999983315980393,-76.74004557390847
9.768,0.9999982303894434,-76.96109893681975
9.776,0.9999981330924913,-77.18213895330065
9.784,0.9999980397685329,-77.40316554349344
9.792,0.9999979504765922,-77.62417862782098
9.8,0.9999978652734092,-77.84517812698992
9.808,0.9999977842134803,-78.06616396199317
9.816,0.9999977073490971,-78.28713605411305
9.824,0.9999976347303882,-78.50809432492348
9.832,0.9999975664053546,-78.72903869629296
9.84,0.99999750241991,-78.94996909038666
9.847999999999999,0.9999974428179174,-79.17088542966913
