freq,mag,phase
6.0,0.9999992681318107,121.49519488276287
6.008,0.9999995382907668,121.41488923398308
6.016,0.9999998005627012,121.33457475889524
6.024,1.0,121.25425144387223
6.032,1.0,121.17391927529383
6.04,1.0,121.09357823954669
6.048,0.9999999999999999,121.01322832302453
6.056,1.0,120.93286951212801
6.064,0.9999999999999999,120.85250179326499
6.072,1.0,120.7721251528505
6.08,1.0,120.69173957730668
6.088,0.9999999999999999,120.61134505306308
6.096,0.9999999999999999,120.53094156655655
6.104,0.9999999999999998,120.4505291042313
6.112,0.9999999999999999,120.37010765253905
6.12,1.0,120.28967719793904
6.128,1.0,120.20923772689805
6.136,1.0,120.1287892258905
6.144,0.9999999999999999,120.04833168139851
6.152,1.0,119.96786507991195
6.16,1.0,119.88738940792845
6.168,1.0,119.80690465195359
6.176,1.0,119.72641079850078
6.184,1.0,119.64590783409139
6.192,1.0,119.56539574525493
6.2,1.0,119.48487451852881
6.208,0.9999999999999999,119.40434414045878
6.216,1.0,119.32380459759858
6.224,1.0,119.24325587651035
6.232,1.0,119.16269796376444
6.24,1.0,119.0821308459396
6.248,1.0,119.00155450962296
6.256,0.9999999999999999,118.92096894141014
6.264,1.0,118.8403741279052
6.272,0.9999999999999999,118.75977005572088
6.28,1.0,118.6791567114784
6.288,1.0,118.59853408180777
6.296,1.0,118.51790215334765
6.304,0.9999999999999999,118.43726091274553
6.312,0.9999999999999999,118.35661034665763
6.32,1.0,118.27595044174919
6.328,0.9999999999999998,118.19528118469424
6.336,1.0,118.11460256217588
6.344,0.9999999999999999,118.03391456088617
6.352,1.0,117.95321716752632
6.36,0.9999999999999999,117.87251036880662
6.368,1.0,117.79179415144651
6.376,0.9999999999999999,117.71106850217471
6.384,0.9999999999999999,117.63033340772925
6.392,1.0,117.54958885485739
6.4,1.0,117.46883483031583
6.408,1.0,117.38807132087065
6.416,0.9999999999999999,117.30729831329744
6.424,1.0,117.22651579438131
6.432,1.0,117.14572375091687
6.44,1.0,117.06492216970844
6.448,1.0,116.9841110375699
6.456,1.0,116.9032903413249
6.464,0.9999999999999999,116.82246006780683
6.472,1.0,116.74162020385883
6.48,0.9999999999999999,116.66077073633399
6.4879999999999995,0.9999999999999999,116.57991165209519
6.496,1.0,116.49904293801525
6.504,1.0,116.41816458097706
6.5120000000000005,0.9999999999999999,116.33727656787339
6.52,1.0,116.25637888560723
6.5280000000000005,0.9999999999999999,116.17547152109155
6.536,1.0,116.09455446124961
6.5440000000000005,1.0,116.01362769301473
6.552,0.9999999999999999,115.93269120333056
6.5600000000000005,1.0,115.85174497915101
6.568,1.0,115.77078900744033
6.5760000000000005,1.0,115.68982327517314
6.584,0.9999999999999999,115.60884776933446
6.592,1.0,115.52786247691975
6.6,1.0,115.44686738493502
6.608,1.0,115.36586248039676
6.616,1.0,115.28484775033206
6.624,1.0,115.20382318177869
6.632,1.0,115.12278876178493
6.64,1.0,115.04174447740994
6.648,0.9999999999999999,114.96069031572344
6.656,1.0,114.87962626380612
6.664,1.0,114.79855230874931
6.672,1.0,114.7174684376553
6.68,0.9999999999999999,114.63637463763726
6.688,1.0,114.55527089581926
6.696,1.0,114.47415719933642
6.704,1.0,114.3930335353348
6.712,0.9999999999999999,114.31189989097149
6.72,0.9999999999999999,114.23075625341474
6.728,1.0,114.14960260984388
6.736,1.0000000000000002,114.0684389474494
6.744,1.0,113.98726525343297
6.752,1.0,113.90608151500753
6.76,1.0,113.82488771939727
6.768,0.9999999999999999,113.74368385383767
6.776,0.9999999999999999,113.66246990557556
6.784,1.0,113.58124586186916
6.792,0.9999999854517851,113.50001170998804
6.8,0.9999998331686203,113.41876743721328
6.808,0.9999996795191833,113.33751303083739
6.816,0.9999995245463509,113.25624847816441
6.824,0.9999993682925823,113.17497376650991
6.832,0.9999992107999215,113.09368888320103
6.84,0.9999990521099976,113.01239381557659
6.848,0.9999988922640278,112.93108855098693
6.856,0.9999987313028169,112.84977307679416
6.864,0.9999985692667605,112.76844738037208
6.872,0.9999984061958439,112.68711144910617
6.88,0.9999982421296464,112.60576527039375
6.888,0.9999980771073408,112.5244088316439
6.896,0.9999979111676941,112.44304212027752
6.904,0.9999977443490715,112.36166512372743
6.912,0.9999975766894348,112.28027782943829
6.92,0.9999974082263456,112.1988802248667
6.928,0.999997238996966,112.1174722974812
6.936,0.9999970690380611,112.03605403476229
6.944,0.9999968983859976,111.95462542420253
6.952,0.9999967270767484,111.8731864533065
6.96,0.9999965551458921,111.79173710959084
6.968,0.9999963826286145,111.71027738058426
6.976,0.9999962095597106,111.62880725382763
6.984,0.9999960359735859,111.54732671687394
6.992,0.9999958619042568,111.4658357572884
7.0,0.9999956873853535,111.38433436264836
7.008,0.9999955124501201,111.30282252054346
7.016,0.9999953371314163,111.22130021857556
7.024,0.9999951614617197,111.13976744435882
7.032,0.9999949854731262,111.0582241855197
7.04,0.9999948091973511,110.976670429697
7.048,0.9999946326657316,110.89510616454186
7.056,0.9999944559092274,110.81353137771784
7.064,0.9999942789584226,110.73194605690082
7.072,0.9999941018435264,110.65035018977927
7.08,0.9999939245943755,110.56874376405395
7.088,0.9999937472404345,110.48712676743818
7.096,0.9999935698107979,110.40549918765781
7.104,0.999993392334191,110.32386101245113
7.112,0.9999932148389729,110.24221222956905
7.12,0.9999930373531348,110.16055282677502
7.128,0.9999928599043046,110.07888279184507
7.136,0.9999926825197465,109.99720211256788
7.144,0.9999925052263634,109.91551077674472
7.152,0.9999923280506972,109.83380877218957
7.16,0.9999921510189311,109.75209608672904
7.168,0.9999919741568909,109.67037270820246
7.176,0.9999917974900461,109.58863862446185
7.184,0.999991621043512,109.50689382337198
7.192,0.9999914448420496,109.42513829281043
7.2,0.9999912689100695,109.34337202066746
7.208,0.9999910932716304,109.26159499484619
7.216,0.9999909179504433,109.17980720326254
7.224,0.9999907429698709,109.09800863384523
7.232,0.9999905683529307,109.01619927453588
7.24,0.9999903941222936,108.93437911328894
7.248,0.9999902203002898,108.85254813807175
7.256,0.9999900469089062,108.77070633686456
7.264,0.9999898739697897,108.68885369766053
7.272,0.9999897015042478,108.60699020846576
7.28,0.9999895295332519,108.52511585729926
7.288,0.9999893580774363,108.44323063219308
7.296,0.9999891871571008,108.36133452119218
7.304,0.9999890167922125,108.27942751235456
7.312,0.999988847002407,108.1975095937512
7.32,0.999988677806989,108.11558075346612
7.328,0.9999885092249352,108.03364097959638
7.336,0.9999883412748946,107.95169026025211
7.344,0.9999881739751907,107.86972858355645
7.352,0.9999880073438223,107.78775593764568
7.36,0.9999878413984656,107.70577231066912
7.368,0.9999876761564753,107.62377769078924
7.376,0.9999875116348862,107.54177206618158
7.384,0.9999873478504143,107.45975542503486
7.392,0.999987184819459,107.37772775555088
7.4,0.999987022558104,107.29568904594466
7.4079999999999995,0.9999868610821191,107.21363928444431
7.416,0.9999867004069604,107.13157845929116
7.4239999999999995,0.9999865405477749,107.04950655873974
7.432,0.9999863815193981,106.96742357105767
7.4399999999999995,0.9999862233363584,106.8853294845259
7.448,0.9999860660128772,106.8032242874385
7.4559999999999995,0.99998590956287,106.72110796810281
7.464,0.99998575399995,106.63898051483936
7.4719999999999995,0.9999855993374269,106.55684191598195
7.48,0.9999854455883103,106.4746921598776
7.4879999999999995,0.9999852927653105,106.39253123488665
7.496,0.9999851408808391,106.31035912938255
7.504,0.9999849899470129,106.22817583175217
7.5120000000000005,0.9999848399756529,106.14598133039554
7.52,0.999984690978287,106.0637756137261
7.5280000000000005,0.9999845429661516,105.9815586701704
7.536,0.9999843959501918,105.89933048816846
7.5440000000000005,0.9999842499410655,105.81709105617344
7.552,0.9999841049491415,105.73484036265192
7.5600000000000005,0.9999839609845038,105.65257839608373
7.568,0.9999838180569525,105.57030514496198
7.5760000000000005,0.9999836761760034,105.48802059779317
7.584,0.9999835353508923,105.40572474309705
7.5920000000000005,0.9999833955905748,105.32341756940674
7.6,0.9999832569037278,105.24109906526867
7.6080000000000005,0.9999831192987517,105.15876921924254
7.616,0.999982982783772,105.07642801990148
7.6240000000000006,0.9999828473666394,104.99407545583186
7.632,0.9999827130549336,104.91171151563344
7.640000000000001,0.9999825798559624,104.82933618791927
7.648,0.999982447776765,104.7469494613158
7.656000000000001,0.9999823168241126,104.6645513244627
7.664,0.9999821870045104,104.58214176601311
7.672,0.9999820583241987,104.4997207746334
7.68,0.9999819307891548,104.41728833900336
7.688,0.9999818044050939,104.33484444781602
7.696,0.9999816791774715,104.25238908977782
7.704,0.9999815551114846,104.1699222536085
7.712,0.9999814322120725,104.08744392804114
7.72,0.9999813104839196,104.00495410182214
7.728,0.9999811899314559,103.92245276371122
7.736,0.9999810705588588,103.83993990248143
7.744,0.9999809523700548,103.75741550691914
7.752,0.999980835368721,103.67487956582406
7.76,0.9999807195582865,103.59233206800916
7.768,0.9999806049419339,103.50977300230075
7.776,0.999980491522601,103.42720235753845
7.784,0.9999803793029827,103.34462012257517
7.792,0.9999802682855314,103.26202628627709
7.8,0.9999801584724594,103.17942083752375
7.808,0.9999800498657404,103.09680376520788
7.816,0.9999799424671113,103.01417505823557
7.824,0.9999798362780725,102.9315347055261
7.832,0.9999797312998905,102.84888269601208
7.84,0.9999796275336003,102.76621901863935
7.848,0.9999795249800038,102.68354366236701
7.856,0.9999794236396755,102.60085661616736
7.864,0.9999793235129607,102.518157869026
7.872,0.9999792245999786,102.43544740994169
7.88,0.9999791269006234,102.35272522792644
7.888,0.9999790304145665,102.26999131200546
7.896,0.999978935141257,102.18724565121715
7.904,0.9999788410799241,102.10448823461313
7.912,0.9999787482295774,102.02171905125815
7.92,0.9999786565890112,101.93893809023011
7.928,0.9999785661568023,101.85614534062016
7.936,0.9999784769313149,101.77334079153249
7.944,0.9999783889106997,101.69052443208447
7.952,0.9999783020928973,101.6076962514066
7.96,0.9999782164756384,101.52485623864244
7.968,0.9999781320564461,101.44200438294872
7.976,0.9999780488326371,101.3591406734952
7.984,0.9999779668013238,101.27626509946468
7.992,0.9999778859594147,101.1933776500531
8.0,0.9999778063036175,101.11047831446936
8.008,0.9999777278304395,101.02756708193544
8.016,0.9999776505361896,100.94464394168627
8.024000000000001,0.9999775744169795,100.86170888296986
8.032,0.999977499468726,100.77876189504717
8.04,0.9999774256871522,100.6958029671921
8.048,0.9999773530677882,100.61283208869148
8.056000000000001,0.9999772816059745,100.52984924884512
8.064,0.9999772112968617,100.44685443696578
8.072,0.9999771421354132,100.36384764237904
8.08,0.999977074116406,100.28082885442338
8.088000000000001,0.9999770072344336,100.19779806245016
8.096,0.999976941483906,100.11475525582361
8.104,0.999976876859052,100.03170042392073
8.112,0.9999768133539206,99.94863355613136
8.120000000000001,0.9999767509623829,99.86555464185811
8.128,0.9999766896781337,99.78246367051644
8.136,0.9999766294946922,99.6993606315344
8.144,0.9999765704054044,99.61624551435293
8.152000000000001,0.9999765124034448,99.53311830842557
8.16,0.9999764554818171,99.44997900321862
8.168,0.9999763996333567,99.36682758821098
8.176,0.9999763448507316,99.28366405289424
8.184000000000001,0.9999762911264443,99.20048838677258
8.192,0.9999762384528335,99.11730057936283
8.2,0.9999761868220749,99.03410062019435
8.208,0.9999761362261843,98.95088849880904
8.216000000000001,0.9999760866570178,98.86766420476138
8.224,0.9999760381062732,98.78442772761835
8.232,0.9999759905654929,98.70117905695938
8.24,0.999975944026065,98.61791818237633
8.248000000000001,0.999975898479224,98.53464509347359
8.256,0.9999758539160529,98.4513597798679
8.264,0.999975810327486,98.36806223118836
8.272,0.9999757677043075,98.28475243707646
8.280000000000001,0.9999757260371573,98.201430387186
8.288,0.9999756853165285,98.1180960711831
8.296,0.999975645532771,98.03474947874618
8.304,0.9999756066760935,97.95139059956583
8.312,0.9999755687365633,97.86801942334495
8.32,0.9999755317041102,97.78463593979852
8.328,0.9999754955685258,97.70124013865384
8.336,0.9999754603194665,97.61783200965021
8.344,0.9999754259464548,97.53441154253915
8.352,0.999975392438881,97.4509787270841
8.36,0.9999753597860036,97.36753355306074
8.368,0.9999753279769531,97.2840760102566
8.376,0.9999752970007314,97.20060608847132
8.384,0.9999752668462145,97.11712377751638
8.392,0.9999752375021546,97.03362906721533
8.4,0.99997520895718,96.95012194740347
8.408,0.9999751811997981,96.86660240792806
8.416,0.9999751542183967,96.78307043864812
8.424,0.9999751280012449,96.69952602943454
8.432,0.9999751025364962,96.61596917016989
8.44,0.9999750778121881,96.53239985074855
8.448,0.9999750538162449,96.44881806107654
8.456,0.9999750305364798,96.36522379107157
8.464,0.9999750079605948,96.28161703066294
8.472,0.9999749860761841,96.19799776979164
8.48,0.9999749648707339,96.11436599841008
8.488,0.9999749443316256,96.03072170648232
8.496,0.9999749244461366,95.94706488398381
8.504,0.9999749052014422,95.86339552090155
8.512,0.999974886584616,95.77971360723383
8.52,0.9999748685826338,95.69601913299046
8.528,0.9999748511823731,95.61231208819243
8.536,0.9999748343706152,95.5285924628722
8.544,0.9999748181340479,95.44486024707336
8.552,0.9999748024592654,95.36111543085083
8.56,0.9999747873327711,95.27735800427062
8.568,0.9999747727409782,95.19358795740999
8.576,0.9999747586702135,95.10980528035722
8.584,0.9999747451067154,95.02600996321173
8.592,0.9999747320366382,94.94220199608392
8.6,0.9999747194460535,94.85838136909523
8.608,0.9999747073209506,94.77454807237798
8.616,0.9999746956472386,94.6907020960755
8.624,0.9999746844107484,94.60684343034187
8.632,0.9999746735972345,94.52297206534209
8.64,0.9999746631923749,94.43908799125188
8.648,0.9999746531817747,94.35519119825776
8.656,0.9999746435509672,94.27128167655687
8.664,0.9999746342854136,94.18735941635713
8.672,0.9999746253705076,94.10342440787689
8.68,0.999974616791575,94.01947664134526
8.688,0.9999746085338757,93.93551610700173
8.696,0.9999746005826055,93.85154279509639
8.704,0.9999745929228978,93.76755669588961
8.712,0.9999745855398244,93.68355779965233
8.72,0.9999745784183981,93.59954609666566
8.728,0.9999745715435738,93.51552157722116
8.736,0.99997456490025,93.43148423162053
8.744,0.9999745584732705,93.34743405017574
8.752,0.999974552247426,93.26337102320886
8.76,0.9999745462074554,93.17929514105217
8.768,0.9999745403380484,93.09520639404789
8.776,0.9999745346238456,93.01110477254836
8.784,0.9999745290494412,92.92699026691581
8.792,0.9999745235993843,92.84286286752247
8.8,0.9999745182581798,92.75872256475033
8.808,0.9999745130102914,92.67456934899131
8.815999999999999,0.9999745078401421,92.59040321064705
8.824,0.9999745027321153,92.50622414012888
8.832,0.9999744976705586,92.42203212785785
8.84,0.9999744926397822,92.33782716426465
8.847999999999999,0.9999744876240639,92.25360923978948
8.856,0.9999744826076472,92.16937834488208
8.864,0.9999744775747469,92.08513447000162
8.872,0.9999744725095464,92.00087760561682
8.879999999999999,0.9999744673962021,91.91660774220558
8.888,0.9999744622188448,91.8323248702552
8.896,0.9999744569615794,91.74802898026228
8.904,0.999974451608489,91.66372006273254
8.911999999999999,0.9999744461436345,91.57939810818087
8.92,0.9999744405510571,91.49506310713127
8.928,0.9999744348147803,91.41071505011678
8.936,0.9999744289188102,91.32635392767946
8.943999999999999,0.9999744228471374,91.24197973037022
8.952,0.9999744165837403,91.1575924487489
8.96,0.999974410112584,91.07319207338415
8.968,0.999974403417624,90.9887785948534
8.975999999999999,0.9999743964828068,90.90435200374277
8.984,0.9999743892920715,90.81991229064701
8.992,0.9999743818293515,90.73545944616951
9.0,0.9999743740785759,90.65099346092218
9.008,0.9999743660236728,90.5665143255254
9.016,0.9999743576485671,90.48202203060796
9.024000000000001,0.999974348937186,90.39751656680706
9.032,0.999974339873458,90.31299792476817
9.04,0.9999743304413159,90.22846609514501
9.048,0.9999743206246973,90.14392106859947
9.056000000000001,0.9999743104075477,90.05936283580158
9.064,0.9999742997738197,89.9747913874295
9.072,0.9999742887074778,89.8902067141693
9.08,0.9999742771924967,89.80560880671503
9.088000000000001,0.999974265212864,89.72099765576863
9.096,0.9999742527525838,89.6363732520399
9.104,0.999974239795675,89.55173558624638
9.112,0.9999742263261749,89.46708464911325
9.120000000000001,0.9999742123281409,89.38242043137343
9.128,0.9999741977856506,89.29774292376737
9.136,0.9999741826828041,89.21305211704303
9.144,0.9999741670037267,89.12834800195581
9.152000000000001,0.9999741507325688,89.04363056926853
9.16,0.9999741338535078,88.95889980975134
9.168,0.9999741163507507,88.87415571418163
9.176,0.9999740982085344,88.78939827334396
9.184000000000001,0.9999740794111281,88.70462747803009
9.192,0.9999740599428344,88.61984331903881
9.2,0.9999740397879914,88.5350457871759
9.208,0.9999740189309729,88.45023487325408
9.216000000000001,0.9999739973561921,88.36541056809298
9.224,0.9999739750481015,88.28057286251902
9.232,0.9999739519911949,88.19572174736534
9.24,0.9999739281700091,88.11085721347173
9.248000000000001,0.9999739035691252,88.02597925168466
9.256,0.9999738781731712,87.9410878528571
9.264,0.9999738519668212,87.85618300784847
9.272,0.9999738249347999,87.77126470752461
9.280000000000001,0.9999737970618814,87.68633294275772
9.288,0.9999737683328935,87.60138770442627
9.296,0.9999737387327164,87.51642898341488
9.304,0.9999737082462867,87.43145677061432
9.312000000000001,0.9999736768585968,87.34647105692144
9.32,0.9999736445546987,87.2614718332391
9.328,0.9999736113197042,87.17645909047604
9.336,0.999973577138786,87.09143281954685
9.344,0.9999735419971802,87.00639301137197
9.352,0.9999735058801877,86.92133965687744
9.36,0.9999734687731757,86.83627274699505
9.368,0.9999734306615787,86.75119227266208
9.376,0.9999733915309011,86.66609822482141
9.384,0.9999733513667174,86.58099059442121
9.392,0.9999733101546747,86.49586937241513
9.4,0.9999732678804943,86.41073454976201
9.408,0.9999732245299731,86.32558611742598
9.416,0.9999731800889841,86.24042406637626
9.424,0.9999731345434795,86.15524838758716
9.432,0.9999730878794914,86.07005907203794
9.44,0.9999730400831338,85.98485611071287
9.448,0.999972991140603,85.89963949460093
9.456,0.9999729410381809,85.81440921469604
9.464,0.9999728897622354,85.72916526199666
9.472,0.9999728372992215,85.643907627506
9.48,0.999972783635684,85.55863630223169
9.488,0.9999727287582583,85.47335127718601
9.496,0.9999726726536722,85.38805254338547
9.504,0.9999726153087478,85.30274009185102
9.512,0.9999725567104015,85.21741391360776
9.52,0.9999724968456475,85.13207399968508
9.528,0.9999724357015982,85.04672034111638
9.536,0.9999723732654656,84.96135292893912
9.544,0.9999723095245641,84.8759717541947
9.552,0.9999722444663097,84.79057680792836
9.56,0.9999721780782239,84.70516808118919
9.568,0.9999721103479345,84.61974556502996
9.576,0.9999720412631756,84.53430925050705
9.584,0.9999719708117917,84.4488591286805
9.592,0.9999718989817367,84.36339519061372
9.6,0.999971825761078,84.2779174273736
9.608,0.9999717511379953,84.19242583003032
9.616,0.9999716751007838,84.10692038965732
9.624,0.999971597637856,84.02140109733122
9.632,0.9999715187377418,83.93586794413174
9.64,0.9999714383890906,83.85032092114159
9.648,0.9999713565806743,83.76476001944646
9.656,0.9999712733013854,83.6791852301348
9.664,0.9999711885402423,83.593596544298
9.672,0.9999711022863885,83.50799395302995
9.68,0.999971014529094,83.42237744742734
9.688,0.9999709252577591,83.33674701858928
9.696,0.9999708344619127,83.2511026576174
9.704,0.9999707421312161,83.16544435561566
9.712,0.9999706482554636,83.07977210369039
9.72,0.9999705528245844,82.99408589295003
9.728,0.9999704558286436,82.9083857145053
9.736,0.9999703572578442,82.82267155946883
9.744,0.9999702571025281,82.73694341895538
9.752,0.9999701553531778,82.65120128408144
9.76,0.9999700520004184,82.56544514596544
9.768,0.9999699470350181,82.4796749957275
