freq,mag,phase
6.0,0.999618916670105,-136.29743527517567
6.002285056,0.9997482889982778,-136.43653082283268
6.004570112,0.999893532697727,-136.5775839441472
6.006855168,1.0000457176638675,-136.72076312175608
6.009140224,1.000195385199589,-136.86621627555758
6.01142528,1.0003329056159989,-137.01369865556757
6.013710336,1.0004495710583259,-137.1630225869213
6.015995392,1.0005380361127154,-137.313828826153
6.018280448,1.0005927006522124,-137.46564501234192
6.020565504,1.000610026517428,-137.61799936429114
6.02285056,1.0005889875523282,-137.77030413383332
6.025135616,1.000530844525208,-137.9221053726925
6.027420672,1.0004393560496698,-138.07273236146017
6.029705728,1.0003201130107737,-138.22182693780258
6.031990784,1.0001808344438259,-138.36906570059477
6.03427584,1.000030304432281,-138.51418160611257
6.036560896,0.9998779611088988,-138.65707379672926
6.038845952,0.9997334692638791,-138.79780677500952
6.041131008,0.9996061940842798,-138.93656435232538
6.043416064,0.9995039290239901,-139.07362634634958
6.04570112,0.9994334202189924,-139.2094670288667
6.047986176,0.9993989296737718,-139.3444715564908
6.050271232,0.9994028769400807,-139.4792666525743
6.052556288,0.9994448754644629,-139.6143627751109
6.054841344,0.9995222434805359,-139.75037877476592
6.0571264,0.9996302519838183,-139.8876833149925
6.059411456,0.9997619796579077,-140.02674839122136
6.061696512,0.9999090109883728,-140.16780052912264
6.063981568,1.0000620349159297,-140.31106602334174
6.066266624,1.0002114316765924,-140.45646296210882
6.06855168,1.0003477495136537,-140.60399420975864
6.070836736,1.000462241150376,-140.75329563352776
6.073121792,1.0005477758465542,-140.9040473695859
6.075406848,1.0005988889940525,-141.05581217460158
6.077691904,1.0006122466569718,-141.20802620141092
6.07997696,1.0005871272911506,-141.36010807386108
6.082262016,1.0005250698171593,-141.5115803803521
6.084547072,1.0004298907269433,-141.6618976907284
6.086832128,1.0003076482427364,-141.810617396162
6.089117184,1.0001661374237152,-141.95744791000536
6.09140224,1.000014289522638,-142.10211090710592
6.093687296,0.9998617084740303,-142.24453150168586
6.095972352,0.9997180411119758,-142.38482119291714
6.098257408,0.9995924719645958,-142.52313365476357
6.100542464,0.9994928319392742,-142.65978921934504
6.10282752,0.9994256357091884,-142.79524182503457
6.105112576,0.999395067970056,-142.92993213024658
6.107397632,0.9994030117576012,-143.0644742200276
6.1096832,0.9994491014379859,-143.19937611239772
6.111968256,0.9995303904631907,-143.3352195393514
6.114253312,0.9996415965201289,-143.47245440211654
6.116538368,0.9997759393983501,-143.61143684060363
6.118823424,0.99992473207285,-143.75250710501192
6.12110848,1.0000785464072368,-143.89573125885164
6.123393536,1.0002276159868948,-144.0411912643336
6.125678592,1.0003625829886298,-144.1886288628932
6.127963648,1.0004749029487197,-144.33788146008843
6.130248704,1.0005573403451298,-144.48859073374211
6.13253376,1.000604724527376,-144.64018418175746
6.134818816,1.000614102318968,-144.79218251944317
6.137103872,1.0005848392113699,-144.9440426077429
6.139388928,1.0005186882154768,-145.09519627992452
6.141673984,1.0004199716606468,-145.24513465843998
6.14395904,1.000294806072738,-145.3934536363825
6.146244096,1.0001510905574926,-145.53980134258063
6.148529152,0.999998036460203,-145.6839902541573
6.150814208,0.9998453235362599,-145.82592500977435
6.153099264,0.9997025145140911,-145.96571487750518
6.15538432,0.9995787104067089,-146.10354807494065
6.157669376,0.9994819206694835,-146.23975386629948
6.159954432,0.9994180500243105,-146.37480070243365
6.162239488,0.9993913978833301,-146.5091762765054
6.164524544,0.9994035381857628,-146.64339931358765
6.1668096,0.9994537811365183,-146.77808737748754
6.169094656,0.9995388451452808,-146.91376980810705
6.171379712,0.9996534085952327,-147.05084535124104
6.173664768,0.9997902305408157,-147.18975967043139
6.175949824,0.9999407524036273,-147.33077679754706
6.17823488,1.000095148169569,-147.47394706181896
6.180519936,1.0002438805441458,-147.61935253368918
6.182804992,1.0003774408306094,-147.76676643465686
6.185090048,1.0004873388906854,-147.9159615187056
6.187375104,1.000566677436591,-148.06648869193384
6.18966016,1.0006103769437666,-148.2179547905829
6.191945216,1.000615680695198,-148.36970181441737
6.194230272,1.0005821697192439,-148.52128794902237
6.196515328,1.0005120423878284,-148.6720700251367
6.198800384,1.0004097746212424,-148.8216379338375
6.20108544,1.0002816401265646,-148.96945974302923
6.203370496,1.0001359006342707,-149.11532525525791
6.205655552,0.9999817007817791,-149.2589907164836
6.207940608,0.9998288675525077,-149.40044549149883
6.210225664,0.9996870428412223,-149.53965109859226
6.21251072,0.9995652871689046,-149.67699943803936
6.214795776,0.9994712776403136,-149.81274231477678
6.217080832,0.9994109861993233,-149.94734199374417
6.219365888,0.9993882399296514,-150.08135597671483
6.221650944,0.9994045568391156,-150.21525713926957
6.223936,0.9994589213851701,-150.34969770788442
6.226221056,0.9995478201181397,-150.4851710620639
6.228506112,0.9996656480878867,-150.62209412143656
6.230791168,0.9998050380947466,-150.76092743681954
6.233076224,0.9999570269740579,-150.90183739998793
6.23536128,1.0001119602456487,-151.04496445857941
6.237646336,1.0002602089712442,-151.19028487183368
6.239931392,1.0003922280774398,-151.33762956952918
6.242216448,1.0004996792713219,-151.48671259724642
6.244501504,1.0005757480756596,-151.63710810800373
6.24678656,1.0006155733038038,-151.78830805915268
6.249071616,1.0006167454014243,-151.93983897594256
6.251356672,1.000579056701637,-152.0910396939748
6.253641728,1.0005049771343504,-152.24146464516556
6.255926784,1.0003990272742787,-152.3905801639076
6.25821184,1.0002681573146084,-152.53791887145397
6.260496896,1.0001203352841956,-152.6832661421745
6.262781952,0.9999651435741432,-152.8263452614882
6.265067008,0.9998123148518427,-152.96718995681118
6.267352064,0.9996715946927279,-153.10593381247244
6.26963712,0.9995519026654728,-153.24270341430227
6.271922176,0.9994608184847406,-153.3779445467971
6.274207232,0.9994040789845131,-153.5120825774183
6.276492288,0.9993853834252012,-153.64569181206284
6.278777344,0.9994060105816773,-153.77925085249817
6.2810624,0.9994644796428608,-153.91342233905917
6.283347456,0.9995572327619758,-154.04865075929885
6.285632512,0.999678335863949,-154.1854451408683
6.287917568,0.9998200516803274,-154.32407759167148
6.290202624,0.9999735174626985,-154.4649017548947
6.29248768,1.00012897266182,-154.60793034054578
6.294772736,1.0002765211727846,-154.7531909958281
6.297057792,1.0004069236670208,-154.90040475584172
6.299342848,1.0005117868197575,-155.04935050702633
6.301627904,1.0005844592766329,-155.19955132970384
6.30391296,1.0006205166153423,-155.3504997899941
6.306198016,1.0006173760141537,-155.50173632176208
6.308483072,1.000575434784002,-155.652564066315
6.310768128,1.000497368189452,-155.80255356951932
6.313053184,1.0003879102462596,-155.95119168458424
6.31533824,1.000254068800809,-156.09800151808665
6.317623296,1.0001044299165944,-156.24275980432904
6.319908352,0.9999483417581495,-156.38529517049173
6.322193408,0.9997956144058303,-156.52553771362253
6.324478976,0.999656173724413,-156.66364562978046
6.326764032,0.9995385718113965,-156.79987292552332
6.329049088,0.9994505556317903,-156.9346099795029
6.331334144,0.9993975388126234,-157.0682704344229
6.3336192,0.9993830144293508,-157.20143975698872
6.335904256,0.999407846798591,-157.33466792593646
6.338189312,0.9994705238481244,-157.46849753226059
6.340474368,0.9995670881144311,-157.60347467240493
6.342759424,0.9996913272499364,-157.7400699791138
6.34504448,0.999835523480972,-157.8785725725718
6.347329536,0.9999903634295362,-158.01926314699577
6.349614592,1.0001460914823816,-158.1621768801801
6.351899648,1.0002929938885252,-158.3072762276568
6.354184704,1.0004215105535492,-158.45439534863047
6.35646976,1.0005236938728743,-158.6031068702733
6.358754816,1.0005929577931996,-158.75310669271747
6.361039872,1.0006250039086546,-158.90376636978445
6.363324928,1.0006176213360285,-159.05467494348835
6.365609984,1.0005713944185004,-159.20511478472372
6.36789504,1.000489281962857,-159.3546352453633
6.370180096,1.0003763489406317,-159.5027211193329
6.372465152,1.0002397666691645,-159.648995106932
6.374750208,1.0000882246176246,-159.79314498456964
6.377035264,0.9999312875495164,-159.93503607790564
6.37932032,0.9997788647645216,-160.07466091665233
6.381605376,0.9996407145027979,-160.2121520997654
6.383890432,0.9995253808901979,-160.34780568920257
6.386175488,0.9994405406658959,-160.48195995138977
6.388460544,0.9993913800518028,-160.6151587508891
6.3907456,0.9993810213491705,-160.7478514644451
6.393030656,0.9994102266572916,-160.8806798721459
6.395315712,0.9994769747631029,-161.01419939252972
6.397600768,0.9995773799605051,-161.14893519266286
6.399885824,0.9997048288115017,-161.28528370287228
6.40217088,0.9998512035662243,-161.42363405460637
6.404455936,1.0000073632256155,-161.56413538814493
6.406740992,1.0001634049640156,-161.70692679112162
6.409026048,1.0003093630337905,-161.85185122465515
6.411311104,1.0004359791746347,-161.99879461684057
6.41359616,1.0005354066622487,-162.14730566589745
6.415881216,1.0006010626223845,-162.29704519886852
6.418166272,1.0006290750500626,-162.44743686000763
6.420451328,1.0006174317040166,-162.5979243264829
6.422736384,1.0005668562652015,-162.7479583784638
6.42502144,1.0004807092717973,-162.89697853461115
6.427306496,1.0003642644372754,-163.04452315730722
6.429591552,1.0002250486735114,-163.19017990693618
6.431876608,1.0000717376417778,-163.33367898870986
6.434161664,0.9999139459280187,-163.47492755527244
6.43644672,0.999761948916944,-163.6138775891035
6.438731776,0.9996251992183373,-163.7507462769791
6.441016832,0.9995123941664942,-163.88578064713406
6.443301888,0.9994307759794219,-164.0193497448939
6.445586944,0.9993854603878437,-164.15197347670983
6.447872,0.9993794185457052,-164.28423271405927
6.450157056,0.999412979536561,-164.41668438115448
6.452442112,0.9994840357286598,-164.54984508219732
6.454727168,0.9995881307995429,-164.6842631420219
6.457012224,0.9997185986772558,-164.82041412312248
6.45929728,0.9998672441828413,-164.95851496564606
6.461582336,1.0000246697088817,-165.09886859095067
6.463867392,1.0001807350430156,-165.2414742522523
6.466152448,1.0003257336697469,-165.38624288895576
6.468437504,1.00045034252826,-165.53294906298495
6.47072256,1.000546808875733,-165.68126107622598
6.473007616,1.0006088680006302,-165.8306968786054
6.475292672,1.000632697458292,-165.98071978478444
6.477577728,1.0006166212520438,-166.13081599331915
6.479862784,1.0005617734193673,-166.2803956835678
6.48214784,1.0004715924237118,-166.42886290274512
6.484432896,1.0003517516643188,-166.57582149535534
6.486717952,1.000209796122791,-166.720845996864
6.489003008,1.0000548045673483,-166.86371247643092
6.491288064,0.9998964632037197,-167.00425950193673
6.49357312,0.9997449589524954,-167.14254139092333
6.495858176,0.9996096997993825,-167.27873052740148
6.498143232,0.999499504461041,-167.41309140867764
6.500428288,0.9994212425172433,-167.54608539420917
6.502713344,0.9993799352222973,-167.67817964109977
6.5049984,0.9993781321818884,-167.80994892166677
6.507283456,0.9994161660302406,-167.9419489358891
6.509568512,0.9994914759903473,-168.0747513522263
6.511853568,0.9995992975941486,-168.20887434819855
6.514138624,0.9997328702036232,-168.34472378007524
6.51642368,0.999883720444242,-168.48262865589663
6.518708736,1.000042171938826,-168.62279712616814
6.520993792,1.0001983173478386,-168.76518795938014
6.523278848,1.0003422203388805,-168.90975578932364
6.525563904,1.0004647049729298,-169.05623499765824
6.52784896,1.0005581045867993,-169.2043002099931
6.530134016,1.0006164018841635,-169.35342542820493
6.532419072,1.0006359768211377,-169.5030864834487
6.534704128,1.000615466772919,-169.65274546603914
6.536989184,1.000556250567265,-169.8017705955498
6.53927424,1.0004620598041374,-169.9497092271852
6.541559808,1.0003387450410774,-170.09605882054117
6.543844864,1.000194269562649,-170.24042550622633
6.54612992,1.000037633078097,-170.38258897351358
6.548414976,0.9998788486135121,-170.522399210307
6.550700032,0.9997278745844372,-170.65998564694837
6.552985088,0.9995944230242114,-170.79546196192197
6.555270144,0.999486860428398,-170.92916814347043
6.5575552,0.9994121051364951,-171.06152761823654
6.559840256,0.9993749149836759,-171.19307206140346
6.562125312,0.9993775715678826,-171.3242972250552
6.564410368,0.9994200660935285,-171.45586650099293
6.566695424,0.9994995704631777,-171.5882931091475
6.56898048,0.9996111972978693,-171.72210551245
6.571265536,0.9997477019339159,-171.85768056167186
6.573550592,0.9999005658093563,-171.99535590799647
6.575835648,1.0000600496086551,-172.13528152548818
6.578120704,1.0002161034928678,-172.27747737806683
6.58040576,1.0003586342812327,-172.42181039539963
6.582690816,1.0004788655327796,-172.5680422582611
6.584975872,1.000569144335361,-172.71582312139674
6.587260928,1.0006234725495922,-172.8645727844419
6.589545984,1.0006387526479357,-173.013853897878
6.59183104,1.0006138414306998,-173.1630621117765
6.594116096,1.0005502096062049,-173.31155234850337
6.596401152,1.0004518945096335,-173.45886566128772
6.598686208,1.0003253042155205,-173.60457366271413
6.600971264,1.000178255769493,-173.7482513084183
6.60325632,1.0000201079217672,-173.88966343258872
6.605541376,0.9998609062111542,-174.0287636750627
6.607826432,0.9997107148472941,-174.1656219441403
6.610111488,0.9995789681189412,-174.30036421062724
6.612396544,0.9994742694412547,-174.43336853113107
6.6146816,0.9994031386445553,-174.5651128613482
6.616966656,0.9993700797290146,-174.69603516521596
6.619251712,0.9993772136483908,-174.826761396838
6.621536768,0.9994242223977262,-174.9578950210136
6.623821824,0.9995079774480132,-175.0899042874628
6.62610688,0.9996232972191688,-175.22336600425825
6.628391936,0.9997627557490807,-175.35865430089842
6.630676992,0.9999176554144341,-175.4960757635553
6.632962048,1.0000781149850806,-175.63575019327965
6.635247104,1.0002337991119752,-175.7777113198962
6.63753216,1.0003750731913796,-175.92182879888117
6.639817216,1.0004929217313956,-176.0677954655801
6.642102272,1.0005797573381883,-176.21521842837828
6.644387328,1.0006302417282253,-176.36361216918837
6.646672384,1.0006410070207623,-176.512468575428
6.64895744,1.0006115840841763,-176.66115798460183
6.651242496,1.0005433996734168,-176.80913089712882
6.653527552,1.0004412589492637,-176.95581844856017
6.655812608,1.0003112690400988,-177.10081534717818
6.658097664,1.0001616969543026,-177.2437561970749
6.66038272,1.0000021215265618,-177.38441901406532
6.662667776,0.9998425991576707,-177.52276726331996
6.664952832,0.9996933456687674,-177.65886740914019
6.667237888,0.9995635944849174,-177.7928455107488
6.669522944,0.9994618504672703,-177.92516621921598
6.671808,0.9993943424082098,-178.056237828788
6.674093056,0.9993657723664872,-178.18654548443087
6.676378112,0.9993774274717515,-178.31675712020422
6.678663168,0.9994289330761731,-178.44737211690776
6.680948224,0.999516958508989,-178.5790184314078
6.68323328,0.9996359738269414,-178.7121140684622
6.685518336,0.9997783084314908,-178.84709504473082
6.687803392,0.9999351062336278,-178.98423825986958
6.690088448,1.0000962361221735,-179.1236571194832
6.692373504,1.0002517239419826,-179.26541193269225
6.69465856,1.0003914938762333,-179.40922759473463
6.696943616,1.0005066695954454,-179.55489676257633
6.699228672,1.0005901481452155,-179.70200839640518
6.701513728,1.0006365493027831,-179.8500078620258
6.703798784,1.0006427768895834,-179.9983792923547
6.70608384,1.0006086182764296,179.85344114173947
6.708368896,1.0005361354797138,179.70608548176406
6.710653952,1.0004299172570732,179.56004657445288
6.712939008,1.000296623183119,179.4157473764953
6.715224064,1.00014476221888,179.27354625495644
6.71750912,0.99998383508013,179.13366328416856
6.719794176,0.9998242049557036,178.9961232568412
6.722079232,0.9996758632435366,178.86082711944192
6.724364288,0.9995483172201923,178.72760035058943
6.726649344,0.9994496192739727,178.59598774660515
6.7289344,0.9993860224665022,178.4655967231379
6.731219456,0.9993617218605196,178.3358731141956
6.733504512,0.9993781475801327,178.20624977734414
6.735789568,0.9994342331010201,178.07609784347684
6.738074624,0.999526548234383,177.94491435221155
6.74035968,0.99964925750124,177.8121685219779
6.742644736,0.9997943298741525,177.67752036734544
6.744929792,0.9999529411412111,177.54064974551645
6.747214848,1.0001148249016587,177.40146932815088
6.749499904,1.0002697294737304,177.26003567025688
6.75178496,1.0004079175708156,177.116487807194
6.754070016,1.0005204115778916,176.97114856890866
6.756355072,1.0006003025526784,176.82442365505574
6.75864064,1.0006425585125465,176.67679485526966
6.760925696,1.0006441944269302,176.52892475992851
6.763210752,1.0006053911409847,176.38131024450624
6.765495808,1.000528400201312,176.23454246548337
6.767780864,1.000418179602028,176.08920963896517
6.77006592,1.0002816622750603,175.94562348189763
6.772350976,1.0001274898974781,175.80421759037563
6.774636032,0.9999653954021535,175.66509400160257
6.776921088,0.9998057783893628,175.52838792353216
6.779206144,0.9996585628247238,175.39392814303764
6.7814912,0.9995331855346357,175.2614120395829
6.783776256,0.9994378045325016,175.13059263528115
6.786061312,0.9993782001298159,175.00089189375777
6.788346368,0.9993583216645743,174.8718171726258
6.790631424,0.9993793678293703,174.7427387948423
6.79291648,0.9994402323393633,174.613070502447
6.795201536,0.9995368160171193,174.48231631036137
6.797486592,0.9996630811058146,174.34996873444322
6.799771648,0.9998109818978427,174.21561701837953
6.802056704,0.999971271425002,174.07905314802267
6.80434176,1.000133729412845,173.94015817338283
6.806626816,1.0002879902111006,173.79902412437383
6.808911872,1.0004243010638003,173.65575554629896
6.811196928,1.000534115317167,173.51074285590101
6.813481984,1.0006102416864415,173.36440967298958
6.81576704,1.0006482187114134,173.21724086457917
6.818052096,1.0006452414944298,173.0698585271292
6.820337152,1.0006015635020573,172.92280534921377
6.822622208,1.000520160989299,172.77670669467227
6.824907264,1.000405907359613,172.63204529899414
6.82719232,1.0002661964933777,172.48927223774393
6.829477376,1.0001098817911351,172.3486497906073
6.831762432,0.9999465817884591,172.21038479648922
6.834047488,0.9997870720957232,172.07447334477862
6.836332544,0.9996411660739705,171.94079747095077
6.8386176,0.9995183027423992,171.80913921280467
6.840902656,0.9994261060581964,171.67906773021335
6.843187712,0.9993706564427843,171.55005823913487
6.845472768,0.9993553725075541,171.42162464066536
6.847757824,0.9993811903527464,171.29311216389195
6.85004288,0.9994466433119524,171.1639678649417
6.852327936,0.9995474171269104,171.0336307664865
6.854612992,0.9996773109016176,170.90168425521566
6.856898048,0.999827928127084,170.76767741387027
6.859183104,0.9999898879747284,170.6314403467998
6.86146816,1.000152747709211,170.49282152480086
6.863753216,1.0003062806227574,170.35194775043604
6.866038272,1.000440543957304,170.20902073437546
6.868323328,1.000547407063378,170.06436548820722
6.870608384,1.0006198895279161,169.91842069545265
6.87289344,1.000653185837724,169.77171312163344
6.875178496,1.000645501610189,169.62487526864803
6.877463552,1.000597181367623,169.47844181870684
6.879748608,1.0005111180550144,169.33301020208262
6.882033664,1.0003930566651167,169.18909325666334
6.88431872,1.000250111545982,169.0470812647827
6.886603776,1.000091652420861,168.9072942713105
6.888888832,0.9999274984635628,168.76986093319377
6.891173888,0.99976820163385,168.63480576821695
6.893458944,0.9996236436996501,168.5019882629687
6.895744,0.9995032729231192,168.37114721087295
6.898029056,0.999414692513146,168.24179231415513
6.900314112,0.9993633975077245,168.11353525194195
6.902599168,0.9993527704721556,167.9857226180577
6.904884224,0.9993834968183404,167.8578314613269
6.90716928,0.9994537998687126,167.72920610295395
6.909454336,0.9995586951535044,167.59930593709134
