freq,mag,phase
6.0,1.0003778518295556,162.136040576991
6.002287616,1.000459246958756,161.97131929371213
6.004575232,1.0005127524091473,161.80565642263505
6.006862848,1.0005337167678479,161.63947441313886
6.009150464,1.0005208877488903,161.47324130624588
6.011438592,1.0004751003241803,161.3074593639891
6.013726208,1.0003990537260308,161.1425762328975
6.016013824,1.000297654581556,160.97899492973508
6.01830144,1.0001774324961588,160.8170493737532
6.020589056,1.000045751174195,160.65696229499116
6.022876672,0.9999111623909083,160.49880345584458
6.025164288,0.9997819626874799,160.34259605958152
6.027451904,0.9996665794956529,160.18816613032897
6.029740032,0.9995720196705453,160.03531446045355
6.032027648,0.9995045949272559,159.8836431194063
6.034315264,0.9994682808463415,159.73273768106253
6.03660288,0.9994656332078502,159.58215217040708
6.038890496,0.9994968043233473,159.43136488232918
6.041178112,0.9995595382392849,159.27994425792
6.043465728,0.9996502629218275,159.12737036092818
6.045753344,0.999762921366008,158.9733828750326
6.04804096,0.9998906211713232,158.81765069539904
6.050329088,1.0000250141231557,158.66003377926052
6.052616704,1.000157828319945,158.50052006629784
6.05490432,1.0002804903927571,158.33914576897706
6.057191936,1.0003854401650427,158.1761356994903
6.059479552,1.000465966472998,158.0118017972004
6.061767168,1.000516979785147,157.84654942470863
6.064054784,1.000535052105157,157.68081570089782
6.0663424,1.000519182392198,157.515070902275
6.068630016,1.000470558347288,157.3498077821025
6.070918144,1.0003919145813978,157.18548936154727
6.07320576,1.0002883691616573,157.0225259737886
6.075493376,1.0001665999044296,156.86121591692657
6.077780992,1.0000340596184958,156.70176003796493
6.080068608,0.9998994128050379,156.544259414602
6.082356224,0.9997708614778861,156.38872573067212
6.08464384,0.9996566972538601,156.234935430507
6.086931456,0.9995641557727378,156.08269425850926
6.089219584,0.9994989451677259,155.93159432914945
6.0915072,0.9994654990251547,155.78126168669607
6.093794816,0.9994658586748749,155.63117279111543
6.096082432,0.9994997964919499,155.48083918340484
6.098370048,0.9995653753238443,155.32984151902912
6.100657664,0.999658419390958,155.1776641781631
6.10294528,0.9997729003490843,155.02402931527826
6.105232896,0.9999016583511455,154.86865582464762
6.107520512,1.000036695342286,154.71139091460415
6.10980864,1.000169224313913,154.55216789764887
6.112096256,1.000290898553797,154.3911324088082
6.114383872,1.0003942918443722,154.22847714424324
6.116671488,1.0004725014904707,154.06452668988362
6.118959104,1.0005207599262276,153.899692828904
6.12124672,1.0005360714622955,153.73440774965206
6.123534336,1.0005172341976052,153.56916838368912
6.125821952,1.0004657700672308,153.40446788415784
6.128109568,1.0003846380535653,153.2407169052613
6.130397696,1.00027902963469,153.07836122984156
6.132685312,1.000155658969658,152.91769244688473
6.134972928,1.0000224434178107,152.75891148356467
6.137260544,0.9998875493494294,152.60209653325768
6.13954816,0.9997596228240405,152.44720323659297
6.141835776,0.9996469253687801,152.29406685493524
6.144123392,0.9995564113413261,152.1424463832648
6.146411008,0.9994936980557011,151.99194845916804
6.148699136,0.9994631731088998,151.84217774615962
6.150986752,0.9994663855692009,151.69262623382838
6.153274368,0.9995032795855712,151.54277288677417
6.155561984,0.9995716125081923,151.39216547436362
6.1578496,0.9996669880516353,151.24040688747758
6.160137216,0.9997833505384471,151.0871363776847
6.162424832,0.9999132407747559,150.9321206460376
6.164712448,1.0000486317583333,150.77515704029605
6.167000064,1.0001808636311482,150.6162807054872
6.169288192,1.0003014782955284,150.4556043447259
6.171575808,1.0004031010369085,150.29329655209685
6.173863424,1.0004789900700901,150.12974931498962
6.17615104,1.0005245376644238,149.96534220319637
6.178438656,1.0005368393309892,149.80052063715704
6.180726272,1.0005150786219454,149.63581884105318
6.183013888,1.0004606865734869,149.4716559073736
6.185301504,1.0003769789562436,149.30854283352946
6.18758912,1.0002694010954916,149.14679907065172
6.189877248,1.0001445509738163,148.98679780431684
6.192164864,1.0000104623035262,148.8286817435029
6.19445248,0.9998755486027684,148.6725411213627
6.196740096,0.9997485310576059,148.51831065912566
6.199027712,0.9996370965869744,148.3658653025154
6.201315328,0.9995486467073684,148.21486046330116
6.203602944,0.9994886154201408,148.06498781263855
6.20589056,0.9994609140319904,147.91575216219218
6.208178688,0.9994671855900303,147.7667085076112
6.210466304,0.9995070461249168,147.61734826016186
6.21275392,0.9995780881707633,147.4672068809409
6.215041536,0.9996757532166612,147.31585404823872
6.217329152,0.9997938500649716,147.16293994564418
6.219616768,0.999924845319231,147.00824204878606
6.221904384,1.0000606380884487,146.85162464035417
6.224192,1.000192514258772,146.69310256611493
6.226479616,1.0003120631456797,146.53275788503413
6.228767744,1.0004118073549564,146.3708752662611
6.23105536,1.000485356609908,146.2077162971847
6.233342976,1.0005281533823736,146.04375060618426
6.235630592,1.000537400522393,145.87942164780685
6.237918208,1.0005126530285846,145.71519599705698
6.240205824,1.000455318626867,145.551624744085
6.24249344,1.0003690801220846,145.3891221622993
6.244781056,1.0002594425404019,145.22804385777553
6.247068672,1.0001333343329832,145.06869250263745
6.2493568,0.9999983471780763,144.9112752115506
6.251644416,0.9998636551895292,144.75583139698634
6.253932032,0.9997372454305001,144.60229529509354
6.256219648,0.9996274743852996,144.45050715525468
6.258507264,0.9995409720056856,144.30015976438108
6.26079488,0.999483665223411,144.15087595749824
6.263082496,0.999458838525479,144.00221113488618
6.265370112,0.9994680538636266,143.85370195079386
6.26765824,0.9995110495276913,143.70480985008743
6.269945856,0.9995848295164718,143.55511842177117
6.272233472,0.9996847665496871,143.40415824029304
6.274521088,0.9998046473220791,143.25162022299878
6.276808704,0.9999368042891277,143.09728463455522
6.27909632,1.00007278684845,142.9410240352458
6.281383936,1.0002040861024144,142.78284778211363
6.283671552,1.0003223963894194,142.62284587576843
6.285959168,1.0004202827554391,142.46132252217478
6.288247296,1.0004914035529209,142.2985975009962
6.290534912,1.0005314510000343,142.13507080544264
6.292822528,1.0005378152672537,141.97123628707925
6.295110144,1.0005099328286908,141.8075566797251
6.29739776,1.0004496116277226,141.6445799922744
6.299685376,1.000360934392062,141.48268949223097
6.301972992,1.000249173405705,141.32226824633943
6.304260608,1.0001216170958998,141.1635978971866
6.306548224,0.9999861141306936,141.00688370020853
6.308836352,0.9998514485646993,140.85212163365588
6.311123968,0.9997260435814548,140.69927404450186
6.313411584,0.999617803985834,140.5481463243916
6.3156992,0.9995335919578094,140.39845728363525
6.317986816,0.9994790243063136,140.24980545357306
6.320274432,0.9994569868365875,140.1017025453308
6.322562048,0.9994695273944617,139.95371981663234
6.324849664,0.9995154668067163,139.80530989164927
6.327137792,0.9995919444802308,139.65603982209532
6.329425408,0.9996941967031671,139.50550839553446
6.331713024,0.9998156798838874,139.35334658960778
6.33400064,0.9999488382073026,139.19935820548307
6.336288256,1.0000850803721335,139.0434292371874
6.338575872,1.0002158610749063,138.8856000051905
6.340863488,1.0003329709679702,138.7259814434797
6.343151104,1.000428846648515,138.56486283966223
6.34543872,1.0004974539982003,138.40254943646826
6.347726848,1.0005346094119068,138.23948105986753
6.350014464,1.000537809876835,138.07613499867975
6.35230208,1.0005068075134318,137.91302100302272
6.354589696,1.000443805255853,137.7506247723961
6.356877312,1.0003524914795245,137.5893546596555
6.359164928,1.0002386086293806,137.42959964283727
6.361452544,1.0001098325522673,137.27160807390806
6.36374016,0.9999738146341122,137.1156020630646
6.366027776,0.9998392280673307,136.9615384739891
6.368315904,0.9997147759176331,136.80941340119125
6.37060352,0.999608229539135,136.65896152545164
6.372891136,0.9995263211601645,136.50993333629592
6.375178752,0.9994743534697589,136.36187488297347
6.377466368,0.9994556134175105,136.21435702556488
6.379753984,0.999471123074488,136.06687520406908
6.3820416,0.9995201129705795,135.91897312241719
6.384329216,0.9995993169063666,135.77015509619235
6.386617344,0.9997038439263967,135.61998523906504
6.38890496,0.9998270579257438,135.4682143215906
6.391192576,0.9999611087124656,135.31459940158018
6.393480192,1.0000975273537873,135.1590234147063
6.395767808,1.0002277448165273,135.00154031491363
6.398055424,1.0003433923464304,134.8422782010536
6.40034304,1.0004371996766832,134.6815409606159
6.402630656,1.0005033524951332,134.51965229026092
6.404918272,1.000537465760857,134.35705824198226
6.4072064,1.0005375073592957,134.19421336136065
6.409494016,1.0005034735403147,134.03167177436117
6.411781632,1.000437437251395,133.86987668483337
6.414069248,1.0003436320136074,133.70923473263932
6.416356864,1.0002278964072604,133.55015807854159
6.41864448,1.0000977307891414,133.39286534626152
6.420932096,0.9999611292531754,133.23752802160155
6.423219712,0.9998268762521794,133.08421807408044
6.425507328,0.9997033957811374,132.93276572080285
6.427795456,0.9995986816915872,132.7830075868214
6.430083072,0.999519191214113,132.6346216247614
6.432370688,0.9994699677445861,132.48717685171277
6.434658304,0.9994542855858085,132.34023529373266
6.43694592,0.9994730351114436,132.1932812993111
6.439233536,0.9995250566865215,132.0458369784895
6.441521152,0.9996070178056363,131.89744835829435
6.443808768,0.9997137816655974,131.7477334599085
6.446096896,0.9998385908354368,131.59631145455566
6.448384512,0.99997340116831,131.44303970026405
6.450672128,1.000110044012437,131.28783310107457
6.452959744,1.0002394887259847,131.13070456269588
6.45524736,1.0003536332189278,130.97180043430697
6.457534976,1.0004453832226479,130.81144505524213
6.459822592,1.0005088956304635,130.64998775055173
6.462110208,1.0005400138081397,130.48788091371077
6.464397824,1.0005369549103886,130.32556614514138
6.466685952,1.0004996583184602,130.1635749166457
6.468973568,1.000430783490761,130.00236083321352
6.471261184,1.0003344332788147,129.8423728545158
6.4735488,1.0002168310899007,129.68398015919436
6.475836416,1.0000853501466551,129.5273834949853
6.478124032,0.9999483372337459,129.37276758186997
6.480411648,0.9998144126393752,129.2201495598069
6.482699264,0.9996921515932049,129.06941322789132
6.48498688,0.9995891413612642,128.92035384321963
6.487275008,0.9995119980565144,128.77258969996151
6.489562624,0.9994657984750746,128.6257640525148
6.49185024,0.9994531979191479,128.4793874859361
6.494137856,0.9994751333563233,128.33298425780592
6.496425472,0.9995302906596182,128.18601940849527
6.498713088,0.9996150220644584,128.03806207760616
6.501000704,0.9997240658712354,127.88871610511221
6.50328832,0.9998503435780133,127.73768800767202
6.505576448,0.9999861221761297,127.58475048807004
6.507864064,1.0001226554892118,127.42989016562791
6.51015168,1.0002513482575581,127.27309907843633
6.512439296,1.0003640919606023,127.11458688791372
6.514726912,1.000453528708765,126.95461780319273
6.517014528,1.0005142378540033,126.79360880690575
6.519302144,1.0005422796935834,126.63196179490497
6.52158976,1.000536010391703,126.47014508895651
6.523877376,1.0004956069158213,126.30872319238559
6.526165504,1.0004238066565534,126.14814054881057
6.52845312,1.000324950777107,125.98880278318057
6.530740736,1.000205389845253,125.83107439386227
6.533028352,1.0000727645535026,125.67519272925597
6.535315968,0.9999353449680471,125.52130141381379
6.537603584,0.9998018769222643,125.3693950307328
6.5398912,0.9996807897441107,125.2193527211863
6.542178816,0.9995797744892294,125.07097246010134
6.544466432,0.999505228246602,124.92385162026318
6.54675456,0.9994618861835852,124.77763942840794
6.549042176,0.9994525680701835,124.63182937984915
6.551329792,0.9994775910993619,124.48592333200304
6.553617408,0.9995359252989116,124.33943000536752
6.555905024,0.9996233646061632,124.19191052717687
6.55819264,0.9997345304959251,124.0429517556311
6.560480256,0.9998625605109811,123.89228010131714
6.562767872,0.9999989943787575,123.73972237964756
6.565056,1.0001354540951868,123.58520930642315
6.567343616,1.000263290278101,123.42875913531896
6.569631232,1.000374305066045,123.27060440509648
6.571918848,1.000461567426096,123.11104957612443
6.574206464,1.0005195492962524,122.95044177901984
6.57649408,1.000544462536916,122.78928493995728
6.578781696,1.0005348488892143,122.62803175204755
6.581069312,1.0004912533104642,122.46715066583683
6.583356928,1.0004165068494002,122.30715366229555
6.585645056,1.0003151692434846,122.14849702984003
6.587932672,1.0001938039366456,121.99143264852292
6.590220288,1.000060030703732,121.83625400952096
6.592507904,0.9999222475178575,121.68308982884223
6.59479552,0.9997892609684855,121.53189879118052
6.597083136,0.999669491270534,121.38257481206195
6.599370752,0.9995705094202082,121.2348552710936
6.601658368,0.9994985841043628,121.08839291690484
6.603945984,0.9994582907548749,120.94276889390592
6.606234112,0.9994521258307243,120.79753306581993
6.608521728,0.9994805815494885,120.65212878156642
6.610809344,0.9995418125243153,120.50610587564444
6.61309696,0.9996320550226366,120.35899334724729
6.615384576,0.9997452963212856,120.21042785735804
6.617672192,0.9998748075628585,120.06010830620112
6.619959808,1.0000119968648753,119.9078877178862
6.622247424,1.0001482447222154,119.75370443496917
6.624535552,1.0002751112416548,119.59762551496742
6.626823168,1.0003845431153735,119.43982911754591
6.629110784,1.0004693494279457,119.28064909796527
6.6313984,1.0005243503856192,119.12050835991467
6.633686016,1.0005462267585399,118.95980162952436
6.635973632,1.0005332715158965,118.79903360505685
6.638261248,1.0004864891034653,118.63876768593408
6.640548864,1.0004087390583492,118.47939628150957
6.64283648,1.0003050161112161,118.32136195777642
6.645124608,1.0001817902498809,118.16500294888615
6.647412224,1.000047013059473,118.01053750934327
6.64969984,0.9999089050991073,117.85809097192103
6.651987456,0.9997765527625375,117.70758203843104
6.654275072,0.999658219869688,117.5589754609106
6.656562688,0.9995612174873857,117.41191922527982
6.658850304,0.9994920254062408,117.26610726979202
6.66113792,0.999454769020042,117.12108714229173
6.663426048,0.9994520011573098,116.9763955292697
6.665713664,0.9994837519574334,116.83148718152127
6.66800128,0.9995481131459527,116.68590430414191
6.670288896,0.9996410197947018,116.53922940271278
6.672576512,0.9997564716952503,116.39103338467005
6.674864128,0.9998872641086161,116.2410744784271
6.677151744,1.0000251661741577,116.089159780293
6.67943936,1.0001612099026223,115.93532011095958
6.681726976,1.0002871454994635,115.7795797259347
6.684015104,1.000394572607257,115.62215286295857
6.68630272,1.000477081942745,115.4633969402482
6.688590336,1.0005291574532602,115.30366154420172
6.690877952,1.0005476871000594,115.14343334854523
6.693165568,1.000531428726434,114.98321214316829
6.695453184,1.0004813679304854,114.82348414330022
6.6977408,1.0004007251937421,114.6647407803204
6.700028416,1.000294539462848,114.50737896188252
6.702316032,1.000169611799967,114.35168404990019
6.70460416,1.0000337542901272,114.19793174489676
6.706891776,0.9998955706742481,114.0461588848821
6.709179392,0.9997638299320517,113.89642955917252
6.711467008,0.99964695807998,113.74847265462688
6.713754624,0.9995522331664123,113.60209481552806
6.71604224,0.9994857586611245,113.45692087770021
6.718329856,0.9994515632782708,113.31249241111097
6.720617472,0.999452181488207,113.16831562841809
6.7229056,0.9994872612657802,113.02390750833379
6.725193216,0.9995547644866539,112.87878144122617
6.727480832,0.9996503076682661,112.73249718595955
6.729768448,0.9997678634878566,112.58466816616436
6.732056064,0.9999000583443922,112.43506563580358
6.73434368,1.000038462298094,112.28349176375885
6.736631296,1.0001743638121066,112.12995214591872
6.738918912,1.0002989496087513,111.9745598145961
6.741206528,1.000404550893068,111.8174873635133
6.743494656,1.0004844778530764,111.65910332118746
6.745782272,1.000533649533941,111.49981075208801
6.748069888,1.000548838141699,111.34004839771971
6.750357504,1.0005292081408352,111.18037344835278
6.75264512,1.0004758601702077,111.02120975741255
6.754932736,1.0003923284550331,110.86308235665916
6.757220352,1.000283725987094,110.7063583729869
6.759507968,1.000157111859102,110.55137618107187
6.761795584,1.0000203522191646,110.39830922183472
6.764083712,0.9998820509536953,110.24725794695821
6.766371328,0.9997510674919253,110.09821157290621
6.768658944,0.9996357188650894,109.95095795972736
6.77094656,0.9995433080349913,109.80522253367687
6.773234176,0.9994795556973988,109.66067570003332
6.775521792,0.9994487381467878,109.51682938530607
6.777809408,0.9994527856319941,109.37319252891963
6.780097024,0.9994911477929969,109.2292577356246
6.782385152,0.9995617082087116,109.08457737522501
6.784672768,0.9996599854670589,108.93867327211963
6.786960384,0.9997796414482595,108.79121474532516
6.789248,0.999913141037387,108.64192087399326
6.791535616,1.0000519796358553,108.49067555778188
6.793823232,1.0001874583445551,108.3374607300623
6.796110848,1.000310876478674,108.18237167320474
6.798398464,1.0004145239634021,108.02567495137028
6.80068608,1.000491849684748,107.86767957038286
6.802974208,1.0005377938131328,107.70879963487212
6.805261824,1.0005498163151216,107.54952034063467
6.80754944,1.000526572897262,107.39035558035333
6.809837056,1.0004700995116422,107.23175834772321
6.812124672,1.0003835607074405,107.07424739873109
6.814412288,1.0002726899913474,106.91817779196599
6.816699904,1.0001443059280954,106.76386728796072
6.81898752,1.000006682157446,106.61151083408026
6.821275136,0.9998684054080329,106.46117108727184
6.823563264,0.9997382885890864,106.31281599562668
6.82585088,0.9996245689702495,106.16624172095233
6.828138496,0.9995345148206145,106.02117150222843
6.830426112,0.9994738191222956,105.8772294392937
6.832713728,0.999446169554771,105.7339483686725
6.835001344,0.9994536374102634,105.59083173889837
6.83728896,0.9994954276231408,105.44737424390686
6.839576576,0.9995692407496524,105.30309879732157
6.841864704,0.9996700409085181,105.15758345137557
6.84415232,0.9997917186473972,105.01044786469129
6.846439936,0.9999264277560356,104.86147727912534
6.848727552,1.0000657131022657,104.7105523127004
6.851015168,1.000200677258813,104.55764900739064
6.853302784,1.000322834123162,104.4028826382235
6.8555904,1.0004243768488221,104.24653420965838
6.857878016,1.0004989077357058,104.0889042268484
6.860165632,1.0005418136275628,103.93045869531119
6.86245376,1.0005503086065288,103.77163522434431
6.864741376,1.0005237479605533,103.61297557320152
6.867028992,1.0004638896312406,103.45497621354343
6.869316608,1.000374533374512,103.29807442081434
6.871604224,1.0002613693809772,103.14263909347116
6.87389184,1.0001313250500254,102.98900303574973
6.876179456,0.9999928808813424,102.83734080346076
6.878467072,0.9998546666371889,102.68772243056586
6.880754688,0.9997255250470368,102.54002883643369
6.883042816,0.999613583624273,102.3941440747417
6.885330432,0.9995259592349943,102.24973193984576
6.887618048,0.9994682038241893,102.10636739553487
6.889905664,0.9994439663035228,101.96365327627886
6.89219328,0.9994548270243271,101.82102540153743
6.894480896,0.9995001153948885,101.67804516028096
6.896768512,0.9995769525853745,101.53417838558032
6.899056128,0.9996803751456645,101.38901316173272
6.901344256,0.9998040436444574,101.24222469322565
6.903631872,0.9999399418923226,101.09356260049829
6.905919488,1.0000794521494745,100.94292091056613
6.908207104,1.0002139080345598,100.79031269835926
6.91049472,1.0003346443937529,100.63587503072966
6.912782336,1.0004341301366124,100.4798347155084
6.915069952,1.0005058337351673,100.32258826842397
6.917357568,1.000545538354301,100.16455605095257
6.919645184,1.0005504667342346,100.00619728567378
6.921933312,1.0005204525194775,99.84806196121099
6.924220928,1.0004573762601834,99.69061141382161
