freq,mag,phase
6.0,0.9999991867708867,-137.4925201609107
6.008,0.9999974272444371,-137.871636643058
6.016,0.9999957390933717,-138.25051895755996
6.024,0.9999941207969307,-138.6291688177878
6.032,0.9999925708533731,-139.00758794678904
6.04,0.9999910877798692,-139.38577807716322
6.048,0.9999896701123926,-139.76374095093738
6.056,0.9999883164056094,-140.14147831944334
6.064,0.9999870252327677,-140.51899194319586
6.072,0.9999857951855862,-140.89628359177127
6.08,0.9999846248741414,-141.27335504368756
6.088,0.9999835129267547,-141.65020808628532
6.096,0.9999824579898773,-142.02684451560944
6.104,0.9999814587279754,-142.40326613629202
6.112,0.9999805138234147,-142.779474761436
6.12,0.9999796219763453,-143.1554722125002
6.128,0.9999787819045819,-143.5312603191844
6.136,0.9999779923434886,-143.9068409193166
6.144,0.9999772520458569,-144.28221585874022
6.152,0.9999765597817933,-144.65738699120266
6.16,0.999975914338592,-145.03235617824487
6.168,0.9999753145206219,-145.40712528909157
6.176,0.9999747591492018,-145.78169620054285
6.184,0.9999742470624793,-146.1560707968662
6.192,0.999973777115314,-146.53025096968972
6.2,0.9999733481791492,-146.90423861789648
6.208,0.9999729591418983,-147.27803564751923
6.216,0.9999726089078121,-147.65164397163676
6.224,0.9999722963973637,-148.02506551027028
6.232,0.9999720205471256,-148.39830219028175
6.24,0.9999717803096402,-148.77135594527212
6.248,0.9999715746533027,-149.14422871548123
6.256,0.9999714025622334,-149.51692244768813
6.264,0.9999712630361571,-149.8894390951125
6.272,0.9999711550902769,-150.2617806173169
6.28,0.9999710777551497,-150.63394898010992
6.288,0.9999710300765624,-151.00594615545032
6.296,0.9999710111154085,-151.37777412135165
6.304,0.9999710199475641,-151.74943486178813
6.312,0.9999710556637609,-152.12093036660144
6.32,0.9999711173694634,-152.49226263140784
6.328,0.9999712041847436,-152.86343365750656
6.336,0.9999713152441605,-153.23444545178927
6.344,0.9999714496966271,-153.6053000266495
6.352,0.9999716067052946,-153.97599939989382
6.36,0.9999717854474253,-154.3465455946534
6.368,0.9999719851142649,-154.71694063929627
6.376,0.999972204910923,-155.08718656734086
6.384,0.999972444056249,-155.4572854173696
6.392,0.9999727017827047,-155.82723923294412
6.4,0.9999729773362432,-156.1970500625207
6.408,0.9999732699761843,-156.5667199593668
6.416,0.9999735789750955,-156.93625098147785
6.424,0.9999739036186617,-157.30564519149567
6.432,0.9999742432055676,-157.67490465662672
6.44,0.9999745970473745,-158.04403144856184
6.448,0.9999749644683953,-158.4130276433963
6.456,0.9999753448055765,-158.78189532155056
6.464,0.9999757374083741,-159.1506365676922
6.472,0.999976141638631,-159.51925347065807
6.48,0.9999765568704585,-159.88774812337726
6.4879999999999995,0.9999769824901157,-160.25612262279515
6.496,0.9999774178958855,-160.6243790697976
6.504,0.9999778624979578,-160.99251956913628
6.5120000000000005,0.9999783157183099,-161.3605462293544
6.52,0.9999787769905846,-161.7284611627131
6.5280000000000005,0.9999792457599742,-162.09626648511892
6.536,0.999979721483098,-162.46396431605118
6.5440000000000005,0.9999802036278899,-162.83155677849092
6.552,0.9999806916734749,-163.19904599884953
6.5600000000000005,0.9999811851100565,-163.5664341068988
6.568,0.9999816834387959,-163.9337232357011
6.5760000000000005,0.9999821861716979,-164.3009155215405
6.584,0.9999826928314945,-164.66801310385398
6.592,0.9999832029515302,-165.03501812516407
6.6,0.9999837160756452,-165.40193273101121
6.608,0.9999842317580613,-165.76875906988724
6.616,0.9999847495632709,-166.1354992931692
6.624,0.9999852690659178,-166.50215555505386
6.632,0.9999857898506893,-166.86873001249273
6.64,0.9999863115122015,-167.23522482512757
6.648,0.9999868336548868,-167.60164215522633
6.656,0.9999873558928833,-167.96798416762005
6.664,0.9999878778499233,-168.33425302963968
6.672,0.9999883991592246,-168.70045091105393
6.68,0.9999889194633775,-169.06657998400732
6.688,0.9999894384142387,-169.43264242295862
6.696,0.9999899556728197,-169.79864040462027
6.704,0.9999904709091805,-170.16457610789772
6.712,0.9999909838023211,-170.5304517138295
6.72,0.9999914940400755,-170.89626940552765
6.728,0.9999920013190029,-171.26203136811884
6.736,0.9999925053442843,-171.62773978868555
6.744,0.9999930058296148,-171.9933968562078
6.752,0.9999935024971015,-172.35900476150556
6.76,0.9999939950771566,-172.7245656971812
6.768,0.9999944833083952,-173.09008185756258
6.776,0.9999949669375331,-173.45555543864637
6.784,0.9999954457192816,-173.82098863804188
6.792,0.9999959194162484,-174.18638365491518
6.8,0.9999963877988349,-174.55174268993358
6.808,0.9999968506451371,-174.91706794521062
6.816,0.999997307740843,-175.28236162425105
6.824,0.999997758879136,-175.64762593189653
6.832,0.9999982038605936,-176.01286307427148
6.84,0.9999986424930916,-176.37807525872918
6.848,0.9999990745917042,-176.7432646937982
6.856,0.9999994999786094,-177.1084335891294
6.864,0.9999999184829899,-177.47358415544267
6.872,1.0,-177.83871860447454
6.88,0.9999999999999998,-178.20383914892565
6.888,1.0,-178.56894800240863
6.896,0.9999999999999999,-178.9340473793962
6.904,0.9999999999999999,-179.29913949516956
6.912,0.9999999999999998,-179.66422656576694
6.92,0.9999999999999999,179.97068919206757
6.928,1.0,179.6056055609351
6.936,1.0,179.24052032283257
6.944,1.0,178.87543125920362
6.952,1.0,178.51033615098865
6.96,0.9999999999999999,178.1452327786753
6.968,0.9999999999999999,177.7801189223485
6.976,1.0,177.41499236174016
6.984,0.9999999999999999,177.04985087627932
6.992,0.9999999999999998,176.68469224514146
7.0,1.0,176.31951424729812
7.008,1.0,175.95431466156626
7.016,0.9999999999999999,175.58909126665762
7.024,1.0,175.2238418412278
7.032,1.0,174.85856416392545
7.04,1.0,174.49325601344114
7.048,0.9999999999999999,174.1279151685564
7.056,1.0,173.76253940819257
7.064,1.0,173.39712651145967
7.072,1.0,173.03167425770508
7.08,1.0,172.66618042656236
7.088,0.9999999999999999,172.30064279799996
7.096,1.0,171.9350591523699
7.104,1.0,171.56942727045646
7.112,1.0,171.203744933525
7.12,1.0,170.83800992337052
7.128,1.0,170.47222002236643
7.136,1.0,170.10637301351346
7.144,0.9999999999999999,169.74046668048823
7.152,1.0,169.37449880769233
7.16,0.9999999999999999,169.00846718030107
7.168,0.9999999999999999,168.6423695843126
7.176,0.9999999999999999,168.27620380659684
7.184,0.9999999999999999,167.90996763494473
7.192,1.0,167.54365885811742
7.2,1.0,167.17727526589556
7.208,1.0,166.8108146491289
7.216,1.0,166.4442747997858
7.224,1.0,166.0776535110028
7.232,1.0,165.71094857713476
7.24,0.9999999999999999,165.34415779380458
7.248,1.0,164.97727895795356
7.256,0.9999999999999999,164.61030986789157
7.264,1.0000000000000002,164.2432483233477
7.272,0.9999999999999999,163.87609212552087
7.28,1.0,163.50883907713063
7.288,1.0,163.14148698246842
7.296,0.9999999999999998,162.77403364744873
7.304,1.0,162.40647687966074
7.312,1.0,162.03881448841986
7.32,1.0,161.67104428481994
7.328,0.9999999999999999,161.30316408178538
7.336,0.9999999999999999,160.93517169412365
7.344,1.0,160.567064938578
7.352,0.9999999999999998,160.19884163388062
7.36,1.0,159.8304996008057
7.368,1.0,159.46203666222323
7.376,0.9999999999999999,159.09345064315295
7.384,0.9999999999999999,158.7247393708183
7.392,0.9999999999999999,158.35590067470113
7.4,1.0,157.9869323865965
7.4079999999999995,0.9999999999999999,157.61783234066792
7.416,0.9999999999999999,157.24859837350257
7.4239999999999995,1.0,156.87922832416783
7.432,1.0,156.50972003426656
7.4399999999999995,0.9999999999999999,156.14007134799473
7.448,1.0,155.77028011219738
7.4559999999999995,0.9999999999999999,155.40034417642693
7.464,1.0,155.03026139300007
7.4719999999999995,0.9999999999999999,154.6600296170566
7.48,1.0,154.28964670661736
7.4879999999999995,1.0,153.91911052264388
7.496,1.0,153.54841892909698
7.504,1.0,153.17756979299745
7.5120000000000005,0.9999999999999999,152.80656098448537
7.52,1.0,152.43539037688188
7.5280000000000005,1.0,152.06405584674928
7.536,1.0,151.69255527395353
7.5440000000000005,1.0,151.32088654172566
7.552,0.9999999999999999,150.949047536725
7.5600000000000005,1.0,150.5770361491016
7.568,1.0,150.20485027256038
7.5760000000000005,0.9999999999999999,149.8324878044246
7.584,1.0,149.45994664570105
7.5920000000000005,0.9999999999999999,149.08722470114452
7.6,0.9999999999999999,148.71431987932405
7.6080000000000005,1.0,148.34123009268833
7.616,1.0,147.9679532576331
7.6240000000000006,1.0,147.59448729456784
7.632,1.0,147.2208301279839
7.640000000000001,0.9999999999999998,146.84697968652247
7.648,1.0,146.47293390304407
7.656000000000001,0.9999999999999999,146.09869071469717
7.664,1.0,145.72424806298912
7.672,1.0,145.3496038938562
7.68,1.0,144.97475615773504
7.688,0.9999998678154552,144.59970280963464
7.696,0.9999995597872869,144.22444180920843
7.704,0.9999992500199617,143.84897112082768
7.712,0.9999989386592884,143.47328871365494
7.72,0.999998625851068,143.09739256171844
7.728,0.999998311741057,142.72128064398717
7.736,0.9999979964749255,142.34495094444603
7.744,0.9999976801982223,141.9684014521725
7.752,0.9999973630563336,141.59163016141324
7.76,0.9999970451944469,141.21463507166172
7.768,0.9999967267575133,140.83741418773636
7.776,0.9999964078902105,140.45996551985934
7.784,0.9999960887369067,140.0822870837362
7.792,0.9999957694416238,139.70437690063602
7.8,0.9999954501480021,139.32623299747235
7.808,0.9999951309992644,138.94785340688455
7.816,0.9999948121381811,138.56923616732038
7.824,0.9999944937070363,138.19037932311875
7.832,0.9999941758475929,137.81128092459346
7.84,0.9999938587010582,137.4319390281176
7.848,0.9999935424080514,137.05235169620852
7.856,0.99999322710857,136.67251699761383
7.864,0.9999929129419566,136.29243300739773
7.872,0.9999926000468672,135.91209780702837
7.88,0.9999922885612388,135.53150948446583
7.888,0.9999919786222576,135.15066613425083
7.896,0.9999916703663281,134.7695658575942
7.904,0.9999913639290419,134.38820676246692
7.912,0.9999910594451468,134.0065869636914
7.92,0.9999907570485176,133.62470458303284
7.928,0.9999904568721244,133.24255774929182
7.936,0.9999901590480058,132.8601445983975
7.944,0.9999898637072369,132.47746327350163
7.952,0.9999895709799027,132.094511925073
7.96,0.9999892809950683,131.71128871099327
7.968,0.9999889938807521,131.32779179665314
7.976,0.9999887097638963,130.94401935504905
7.984,0.9999884287703419,130.55996956688142
7.992,0.9999881510247991,130.17564062065293
8.0,0.9999878766508234,129.79103071276788
8.008,0.999987605770787,129.4061380476324
8.016,0.999987338505854,129.02096083775518
8.024000000000001,0.999987074975955,128.6354973038494
8.032,0.9999868152997613,128.24974567493499
8.04,0.99998655959466,127.86370418844173
8.048,0.9999863079767299,127.47737109031347
8.056000000000001,0.999986060560718,127.09074463511298
8.064,0.9999858174600142,126.7038230861274
8.072,0.9999855787866281,126.31660471547451
8.08,0.9999853446511674,125.92908780420996
8.088000000000001,0.9999851151628132,125.54127064243532
8.096,0.9999848904292994,125.1531515294068
8.104,0.999984670556889,124.76472877364432
8.112,0.9999844556503535,124.37600069304222
8.120000000000001,0.9999842458129519,123.9869656149802
8.128,0.9999840411464077,123.59762187643526
8.136,0.9999838417508905,123.20796782409387
8.144,0.9999836477249953,122.81800181446579
8.152000000000001,0.9999834591657217,122.42772221399812
8.16,0.9999832761684548,122.03712739919025
8.168,0.9999830988269454,121.64621575670937
8.176,0.9999829272332929,121.25498568350699
8.184000000000001,0.9999827614779249,120.86343558693633
8.192,0.9999826016495797,120.47156388487042
8.2,0.9999824478352896,120.0793690058202
8.208,0.9999823001203606,119.68684938905456
8.216000000000001,0.9999821585883588,119.29400348472059
8.224,0.9999820233210919,118.90082975396442
8.232,0.9999818943985919,118.50732666905273
8.24,0.9999817718991014,118.11349271349543
8.248000000000001,0.9999816558990566,117.71932638216907
8.256,0.9999815464730715,117.32482618144044
8.264,0.9999814436939245,116.9299906292911
8.272,0.9999813476325424,116.53481825544294
8.280000000000001,0.9999812583579876,116.1393076014843
8.288,0.9999811759374424,115.74345722099665
8.296,0.999981100436198,115.34726567968177
8.304,0.9999810319176392,114.95073155549012
8.312,0.9999809704432333,114.55385343874984
8.32,0.9999809160725155,114.15662993229571
8.328,0.9999808688630807,113.75905965159988
8.336,0.9999808288705678,113.36114122490207
8.344,0.9999807961486513,112.96287329334157
8.352,0.9999807707490288,112.5642545110888
8.36,0.9999807527214111,112.1652835454786
8.368,0.9999807421135133,111.76595907714281
8.376,0.9999807389710427,111.36627980014505
8.384,0.9999807433376907,110.96624442211439
8.392,0.9999807552551244,110.56585166438128
8.4,0.9999807747629769,110.1651002621125
8.408,0.9999808018988399,109.7639889644481
8.416,0.9999808366982548,109.36251653463752
8.424,0.9999808791947072,108.96068175017764
8.432,0.9999809294196175,108.55848340294999
8.44,0.999980987402336,108.1559202993598
8.448,0.999981053170136,107.75299126047423
8.456,0.9999811267482073,107.3496951221624
8.464,0.9999812081596517,106.94603073523464
8.472,0.9999812974254776,106.54199696558348
8.48,0.9999813945645954,106.13759269432364
8.488,0.9999814995938127,105.73281681793408
8.496,0.99998161252783,105.3276682483988
8.504,0.999981733379239,104.9221459133496
8.512,0.9999818621585178,104.51624875620779
8.52,0.999981998874029,104.10997573632767
8.528,0.9999821435320168,103.70332582913895
8.536,0.9999822961366054,103.29629802629087
8.544,0.9999824566897983,102.88889133579538
8.552,0.9999826251914754,102.48110478217174
8.56,0.9999828016393947,102.07293740659038
8.568,0.9999829860291891,101.66438826701807
8.576,0.9999831783543696,101.25545643836215
8.584,0.9999833786063241,100.84614101261626
8.592,0.9999835867743179,100.43644109900498
8.6,0.9999838028454973,100.02635582412998
8.608,0.9999840268048895,99.61588433211493
8.616,0.999984258635405,99.20502578475202
8.624,0.9999844983178408,98.79377936164705
8.632,0.9999847458308839,98.38214426036626
8.64,0.9999850011511134,97.97011969658155
8.648,0.9999852642530065,97.55770490421742
8.656,0.9999855351089403,97.14489913559633
8.664,0.9999858136891986,96.73170166158555
8.672,0.999986099961976,96.31811177174265
8.68,0.999986393893385,95.90412877446224
8.688,0.9999866954474599,95.48975199712127
8.696,0.9999870045861646,95.07498078622572
8.704,0.9999873212694002,94.65981450755567
8.712,0.9999876454550107,94.24425254631164
8.72,0.9999879770987923,93.82829430725941
8.728,0.9999883161545006,93.41193921487603
8.736,0.9999886625738592,92.99518671349414
8.744,0.9999890163065702,92.57803626744754
8.752,0.9999893773003231,92.16048736121499
8.76,0.9999897455008031,91.74253949956515
8.768,0.9999901208517046,91.32419220769972
8.776,0.9999905032947387,90.90544503139778
8.784,0.9999908927696478,90.48629753715802
8.792,0.9999912892142152,90.0667493123424
8.8,0.9999916925642776,89.64679996531743
8.808,0.9999921027537384,89.22644912559679
8.815999999999999,0.9999925197145801,88.80569644398186
8.824,0.9999929433768788,88.38454159270276
8.832,0.9999933736688165,87.9629842655585
8.84,0.9999938105166963,87.54102417805645
8.847999999999999,0.999994253844959,87.11866106755083
8.856,0.9999947035761955,86.69589469338116
8.864,0.999995159631163,86.27272483700987
8.872,0.9999956219288042,85.8491513021588
8.879999999999999,0.9999960903862596,85.42517391494495
8.888,0.9999965649188878,85.00079252401572
8.896,0.9999970454402807,84.57600700068345
8.904,0.9999975318622836,84.15081723905847
8.911999999999999,0.9999980240950115,83.7252231561815
8.92,0.9999985220468696,83.29922469215519
8.928,0.9999990256245707,82.87282181027494
8.936,0.9999995347331571,82.44601449715809
8.943999999999999,1.0,82.01880276287218
8.952,1.0,81.59118664106245
8.96,0.9999999999999999,81.16316618907813
8.968,1.0,80.73474148809736
8.975999999999999,1.0,80.30591264325066
8.984,0.9999999999999999,79.87667978374375
8.992,1.0,79.44704306297885
9.0,1.0,79.01700265867451
9.008,1.0,78.58655877298393
9.016,1.0,78.15571163261225
9.024000000000001,1.0,77.72446148893243
9.032,1.0,77.29280861809936
9.04,0.9999999999999999,76.86075332116216
9.048,0.9999999999999999,76.42829592417571
9.056000000000001,0.9999999999999998,75.99543677831018
9.064,1.0,75.56217625995878
9.072,0.9999999999999999,75.12851477084378
9.08,0.9999999999999999,74.69445273812107
9.088000000000001,1.0,74.25999061448319
9.096,0.9999999999999999,73.82512887825983
9.104,1.0,73.38986803351692
9.112,1.0,72.95420861015378
9.120000000000001,0.9999999999999999,72.51815116399864
9.128,1.0,72.08169627690168
9.136,0.9999999999999998,71.64484455682613
9.144,1.0,71.20759663793757
9.152000000000001,1.0,70.76995318069135
9.16,1.0,70.33191487191726
9.168,0.9999999999999998,69.89348242490225
9.176,1.0,69.45465657947109
9.184000000000001,1.0,69.01543810206496
9.192,1.0,68.5758277858173
9.2,1.0,68.13582645062723
9.208,1.0,67.69543494323119
9.216000000000001,0.9999999999999999,67.25465413727184
9.224,0.9999999999999999,66.81348493336448
9.232,1.0,66.37192825916067
9.24,1.0,65.92998506940982
9.248000000000001,1.0,65.48765634601821
9.256,1.0,65.044943098105
9.264,0.9999999999999999,64.60184636205548
9.272,0.9999999999999999,64.15836720157213
9.280000000000001,1.0,63.714506707722855
9.288,0.9999999999999999,63.2702659989861
9.296,1.0,62.825646221293105
9.304,0.9999999999999998,62.380648548067704
9.312000000000001,1.0,61.93527418026322
9.32,1.0,61.489524346396024
9.328,1.0,61.04340030257621
9.336,1.0,60.59690333253542
9.344,0.9999999999999999,60.150034747652064
9.352,1.0,59.702795886972055
9.36,0.9999999999999999,59.25518811722829
9.368,0.9999999999999999,58.80721283285515
9.376,1.0,58.358871456001374
9.384,0.9999999999999999,57.910165436538385
9.392,1.0000000000000002,57.4610962520665
9.4,0.9999999999999999,57.01166540791674
9.408,1.0,56.56187443715044
9.416,1.0,56.1117249005543
9.424,1.0,55.6612183866333
9.432,1.0,55.21035651159878
9.44,1.0,54.75914091935458
9.448,1.0,54.30757328147816
9.456,1.0,53.855655297199675
9.464,1.0,53.40338869337598
9.472,0.9999999999999999,52.95077522446261
9.48,1.0,52.49781667248062
9.488,0.9999999999999999,52.04451484698124
9.496,1.0,51.5908715850054
9.504,0.9999999999999999,51.13688875104112
9.512,0.9999999999999999,50.6825682369755
9.52,0.9999999999999999,50.22791196204471
9.528,0.9999999999999999,49.77292187277844
9.536,0.9999999999999999,49.31759994294231
9.544,1.0,48.86194817347476
9.552,0.9999999999999999,48.4059685924218
9.56,1.0,47.94966325486615
9.568,1.0,47.493034242854236
9.576,1.0,47.036083665317655
9.584,1.0,46.5788136579923
9.592,0.9999999999999999,46.121226383331965
9.6,1.0,45.663324030419574
9.608,1.0,45.20510881487291
9.616,1.0,44.74658297874788
9.624,1.0,44.28774879043624
9.632,1.0,43.82860854456096
9.64,0.9999999999999999,43.36916456186576
9.648,0.9999999999999999,42.909419189102536
9.656,1.0,42.449374798912935
9.664,1.0,41.98903378970744
9.672,0.9999999999999999,41.528398585539
9.68,1.0,41.06747163597408
9.688,1.0,40.606255415957946
9.696,1.0,40.14475242567778
9.704,1.0,39.68296519041977
9.712,1.0,39.22089626042397
9.72,0.9999999999999999,38.75854821073341
9.728,1.0,38.29592364104069
9.736,1.0,37.83302517552898
9.744,1.0,37.369855462710504
9.752,0.9999999999999999,36.90641717525933
9.76,1.0,36.442713009841746
9.768,0.9999999999999999,35.97874568694103
9.776,1.0,35.51451795067969
9.784,1.0,35.05003256863596
9.792,1.0,34.5852923316582
9.8,0.9999999999999999,34.120300053673354
9.808,0.9999999999999999,33.65505857149318
9.816,1.0,33.18957074461475
9.824,0.9999999999999999,32.723839455018826
9.832,1.0,32.25786760696229
9.84,0.9999999999999998,31.79165812676867
9.847999999999999,1.0,31.325213962612864
9.856,1.0,30.85853808430323
9.864,1.0,30.39163348305956
9.872,0.9999999999999999,29.92450317128674
9.879999999999999,0.9999999999999999,29.457150182344776
9.888,1.0,28.989577570315237
9.896,1.0,28.521788409763946
9.904,1.0,28.053785795499575
9.911999999999999,1.0,27.585572842328432
9.92,1.0,27.11715268480599
9.928,1.0,26.64852847698481
9.936,1.0,26.17970339215828
9.943999999999999,0.9999999999999999,25.71068062260088
9.952,1.0,25.241463379305248
