freq,mag,phase
6.0,0.9999959923861695,150.67068707320382
6.008,0.9999960992262169,150.63020574811554
6.016,0.9999962041510178,150.58971863113277
6.024,0.9999963071776565,150.54922571494473
6.032,0.9999964083231508,150.50872699223424
6.04,0.9999965076044511,150.46822245567787
6.048,0.9999966050384409,150.42771209794586
6.056,0.9999967006419365,150.38719591170207
6.064,0.9999967944316883,150.34667388960406
6.072,0.9999968864243786,150.30614602430308
6.08,0.9999969766366238,150.265612308444
6.088,0.9999970650849733,150.2250727346654
6.096,0.9999971517859093,150.18452729559945
6.104,0.9999972367558482,150.14397598387202
6.112,0.9999973200111388,150.1034187921026
6.12,0.9999974015680637,150.06285571290437
6.128,0.9999974814428391,150.0222867388841
6.136,0.9999975596516135,149.98171186264227
6.144,0.9999976362104711,149.94113107677288
6.152,0.9999977111354272,149.90054437386365
6.16,0.9999977844424315,149.85995174649594
6.168,0.999997856147368,149.81935318724462
6.176,0.999997926266053,149.77874868867832
6.184,0.9999979948142377,149.7381382433592
6.192,0.999998061807606,149.69752184384302
6.2,0.9999981272617756,149.65689948267928
6.208,0.9999981911922986,149.6162711524109
6.216,0.9999982536146603,149.57563684557456
6.224,0.9999983145442799,149.5349965547004
6.232,0.9999983739965106,149.49435027231232
6.24,0.9999984319866394,149.45369799092762
6.248,0.9999984885298867,149.4130397030573
6.256,0.9999985436414082,149.37237540120597
6.264,0.9999985973362919,149.33170507787176
6.272,0.999998649629561,149.29102872554637
6.28,0.9999987005361723,149.25034633671513
6.288,0.9999987500710171,149.20965790385685
6.296,0.9999987982489202,149.168963419444
6.304,0.999998845084641,149.12826287594254
6.312,0.9999988905928734,149.087556265812
6.32,0.9999989347882449,149.04684358150553
6.328,0.9999989776853178,149.0061248154697
6.336,0.9999990192985883,148.96539996014477
6.344,0.9999990596424875,148.92466900796444
6.352,0.9999990987313804,148.88393195135598
6.36,0.9999991365795671,148.8431887827402
6.368,0.9999991732012814,148.80243949453146
6.376,0.999999208610692,148.76168407913755
6.384,0.9999992428219027,148.72092252895987
6.392,0.9999992758489514,148.68015483639337
6.4,0.9999993077058105,148.6393809938264
6.408,0.9999993384063871,148.59860099364096
6.416,0.9999993679645236,148.55781482821237
6.424,0.9999993963939973,148.51702248990966
6.432,0.999999423708519,148.47622397109524
6.44,0.9999994499217356,148.43541926412496
6.448,0.9999994750472293,148.39460836134833
6.456,0.9999994990985155,148.3537912551082
6.464,0.9999995220890461,148.31296793774095
6.472,0.9999995440322081,148.2721384015765
6.48,0.9999995649413225,148.23130263893813
6.4879999999999995,0.9999995848296461,148.19046064214268
6.496,0.9999996037103712,148.14961240350038
6.504,0.999999621596625,148.108757915315
6.5120000000000005,0.9999996385014696,148.06789716988374
6.52,0.9999996544379028,148.02703015949723
6.5280000000000005,0.9999996694188582,147.98615687643954
6.536,0.9999996834572037,147.94527731298828
6.5440000000000005,0.999999696565744,147.9043914614144
6.552,0.9999997087572182,147.86349931398232
6.5600000000000005,0.9999997200443014,147.8226008629499
6.568,0.9999997304396046,147.78169610056852
6.5760000000000005,0.9999997399556735,147.74078501908275
6.584,0.9999997486049909,147.69986761073076
6.592,0.999999756399974,147.65894386774414
6.6,0.9999997633529766,147.6180137823479
6.608,0.9999997694762881,147.5770773467603
6.616,0.9999997747821336,147.5361345531932
6.624,0.9999997792826747,147.49518539385178
6.632,0.9999997829900084,147.4542298609346
6.64,0.9999997859161677,147.41326794663362
6.648,0.9999997880731221,147.3722996431342
6.656,0.9999997894727776,147.33132494261514
6.664,0.9999997901269753,147.2903438372485
6.672,0.999999790047493,147.24935631919982
6.68,0.9999997892460454,147.20836238062796
6.688,0.9999997877342828,147.16736201368514
6.696,0.9999997855237919,147.12635521051698
6.704,0.9999997826260963,147.08534196326244
6.712,0.9999997790526557,147.04432226405387
6.72,0.9999997748148668,147.0032961050169
6.728,0.9999997699240626,146.96226347827056
6.736,0.9999997643915125,146.9212243759272
6.744,0.9999997582284228,146.88017879009254
6.752,0.9999997514459372,146.8391267128656
6.76,0.9999997440551348,146.79806813633874
6.768,0.9999997360670333,146.75700305259767
6.776,0.9999997274925861,146.71593145372134
6.784,0.9999997183426836,146.67485333178215
6.792,0.9999997086281539,146.6337686788457
6.8,0.9999996983597617,146.59267748697096
6.808,0.9999996875482089,146.55157974821017
6.816,0.9999996762041351,146.51047545460892
6.824,0.9999996643381162,146.469364598206
6.832,0.9999996519606661,146.42824717103363
6.84,0.9999996390822361,146.3871231651172
6.848,0.9999996257132144,146.34599257247544
6.856,0.9999996118639273,146.30485538512036
6.864,0.9999995975446383,146.26371159505723
6.872,0.9999995827655481,146.22256119428457
6.88,0.9999995675367962,146.18140417479424
6.888,0.999999551868459,146.1402405285713
6.896,0.9999995357705501,146.09907024759409
6.904,0.9999995192530224,146.05789332383418
6.912,0.9999995023257656,146.01670974925645
6.92,0.9999994849986074,145.975519515819
6.928,0.9999994672813142,145.93432261547312
6.936,0.9999994491835897,145.8931190401634
6.944,0.999999430715076,145.85190878182772
6.952,0.9999994118853539,145.810691832397
6.96,0.9999993927039416,145.7694681837956
6.968,0.9999993731802962,145.72823782794097
6.976,0.9999993533238126,145.68700075674383
6.984,0.9999993331438255,145.6457569621081
6.992,0.9999993126496058,145.60450643593092
7.0,0.9999992918503653,145.56324917010264
7.008,0.9999992707552529,145.52198515650676
7.016,0.9999992493733569,145.4807143870201
7.024,0.9999992277137041,145.43943685351252
7.032,0.9999992057852601,145.3981525478472
7.04,0.9999991835969299,145.3568614618804
7.048,0.999999161157556,145.31556358746172
7.056,0.9999991384759219,145.27425891643375
7.064,0.9999991155607485,145.23294744063236
7.072,0.9999990924206967,145.19162915188662
7.08,0.9999990690643668,145.15030404201866
7.088,0.9999990455002975,145.1089721028439
7.096,0.9999990217369676,145.06763332617078
7.104,0.999998997782795,145.02628770380107
7.112,0.999998973646137,144.98493522752952
7.12,0.9999989493352907,144.94357588914417
7.128,0.9999989248584926,144.90220968042607
7.136,0.9999989002239188,144.86083659314954
7.144,0.9999988754396855,144.819456619082
7.152,0.9999988505138485,144.7780697499839
7.16,0.9999988254544034,144.736675977609
7.168,0.9999988002692858,144.69527529370401
7.176,0.9999987749663715,144.65386769000895
7.184,0.999998749553476,144.61245315825678
7.192,0.9999987240383557,144.57103169017373
7.2,0.9999986984287064,144.529603277479
7.208,0.9999986727321648,144.488167911885
7.216,0.9999986469563077,144.44672558509723
7.224,0.9999986211086523,144.4052762888143
7.232,0.9999985951966565,144.36382001472785
7.24,0.9999985692277191,144.3223567545227
7.248,0.9999985432091785,144.28088649987677
7.256,0.9999985171483154,144.23940924246102
7.264,0.99999849105235,144.1979249739395
7.272,0.9999984649284439,144.1564336859694
7.28,0.9999984387837,144.11493537020087
7.288,0.9999984126251615,144.07343001827732
7.296,0.9999983864598135,144.03191762183513
7.304,0.9999983602945818,143.99039817250372
7.312,0.9999983341363335,143.94887166190563
7.32,0.9999983079918777,143.90733808165652
7.328,0.9999982818679638,143.86579742336502
7.336,0.9999982557712839,143.82424967863287
7.344,0.9999982297084709,143.78269483905484
7.352,0.9999982036860995,143.74113289621886
7.36,0.9999981777106863,143.69956384170575
7.368,0.9999981517886899,143.65798766708954
7.376,0.9999981259265104,143.61640436393725
7.384,0.9999981001304901,143.57481392380888
7.392,0.9999980744069138,143.5332163382576
7.4,0.9999980487620075,143.49161159882956
7.4079999999999995,0.9999980232019404,143.44999969706396
7.416,0.9999979977328236,143.40838062449302
7.4239999999999995,0.9999979723607101,143.36675437264205
7.432,0.9999979470915966,143.32512093302938
7.4399999999999995,0.9999979219314213,143.28348029716636
7.448,0.9999978968860659,143.24183245655738
7.4559999999999995,0.999997871961354,143.20017740269984
7.464,0.9999978471630527,143.15851512708423
7.4719999999999995,0.9999978224968715,143.11684562119405
7.48,0.9999977979684637,143.07516887650578
7.4879999999999995,0.9999977735834249,143.03348488448907
7.496,0.9999977493472942,142.99179363660636
7.504,0.9999977252655544,142.95009512431335
7.5120000000000005,0.9999977013436308,142.90838933905866
7.52,0.9999976775868928,142.8666762722839
7.5280000000000005,0.9999976540006531,142.82495591542383
7.536,0.9999976305901684,142.78322825990608
7.5440000000000005,0.9999976073606387,142.74149329715146
7.552,0.999997584317208,142.69975101857372
7.5600000000000005,0.9999975614649645,142.65800141557955
7.568,0.9999975388089399,142.61624447956888
7.5760000000000005,0.9999975163541107,142.57448020193448
7.584,0.9999974941053968,142.53270857406224
7.5920000000000005,0.9999974720676632,142.49092958733104
7.6,0.9999974502457188,142.44914323311278
7.6080000000000005,0.9999974286443174,142.40734950277243
7.616,0.999997407268157,142.36554838766796
7.6240000000000006,0.9999973861218808,142.32373987915037
7.632,0.9999973652100762,142.2819239685637
7.640000000000001,0.9999973445372763,142.24010064724496
7.648,0.9999973241079585,142.1982699065244
7.656000000000001,0.999997303926546,142.156431737725
7.664,0.9999972839974066,142.11458613216305
7.672,0.999997264324854,142.07273308114773
7.68,0.9999972449131469,142.0308725759813
7.688,0.9999972257664903,141.98900460795915
7.696,0.9999972068890335,141.94712916836951
7.704,0.9999971882848732,141.90524624849394
7.712,0.999997169958051,141.8633558396068
7.72,0.9999971519125547,141.82145793297568
7.728,0.9999971341523185,141.77955251986117
7.736,0.9999971166812225,141.7376395915169
7.744,0.9999970995030933,141.69571913918966
7.752,0.9999970826217044,141.65379115411923
7.76,0.999997066040775,141.61185562753852
7.768,0.9999970497639719,141.56991255067345
7.776,0.9999970337949081,141.52796191474317
7.784,0.9999970181371443,141.4860037109598
7.792,0.9999970027941874,141.4440379305286
7.8,0.9999969877694922,141.40206456464796
7.808,0.9999969730664608,141.36008360450936
7.816,0.9999969586884427,141.31809504129745
7.824,0.9999969446387346,141.27609886618993
7.832,0.9999969309205815,141.2340950703577
7.84,0.9999969175371766,141.19208364496478
7.848,0.9999969044916601,141.15006458116832
7.856,0.9999968917871209,141.10803787011866
7.864,0.9999968794265968,141.06600350295932
7.872,0.9999968674130729,141.02396147082698
7.88,0.9999968557494839,140.98191176485147
7.888,0.9999968444387131,140.9398543761559
7.896,0.9999968334835921,140.89778929585648
7.904,0.9999968228869018,140.8557165150628
7.912,0.999996812651373,140.81363602487747
7.92,0.9999968027796845,140.7715478163965
7.928,0.9999967932744663,140.72945188070906
7.936,0.9999967841382971,140.68734820889767
7.944,0.9999967753737055,140.6452367920381
7.952,0.9999967669831701,140.60311762119937
7.96,0.9999967589691201,140.56099068744376
7.968,0.9999967513339346,140.51885598182707
7.976,0.9999967440799441,140.47671349539817
7.984,0.9999967372094283,140.43456321919953
7.992,0.9999967307246196,140.39240514426677
8.0,0.9999967246277002,140.35023926162904
8.008,0.9999967189208041,140.30806556230883
8.016,0.9999967136060175,140.26588403732205
8.024000000000001,0.9999967086853765,140.22369467767805
8.032,0.999996704160871,140.18149747437963
8.04,0.9999967000344419,140.13929241842308
8.048,0.9999966963079825,140.09707950079815
8.056000000000001,0.9999966929833392,140.05485871248814
8.064,0.9999966900623105,140.0126300444699
8.072,0.9999966875466486,139.97039348771372
8.08,0.9999966854380583,139.92814903318367
8.088000000000001,0.9999966837381981,139.8858966718373
8.096,0.99999668244868,139.84363639462572
8.104,0.9999966815710701,139.8013681924939
8.112,0.999996681106889,139.75909205638027
8.120000000000001,0.9999966810576109,139.71680797721717
8.128,0.9999966814246658,139.67451594593055
8.136,0.9999966822094378,139.63221595344015
8.144,0.9999966834132665,139.5899079906595
8.152000000000001,0.9999966850374474,139.54759204849606
8.16,0.9999966870832316,139.50526811785096
8.168,0.9999966895518257,139.4629361896194
8.176,0.9999966924443944,139.4205962546904
8.184000000000001,0.9999966957620569,139.37824830394695
8.192,0.9999966995058915,139.3358923282661
8.2,0.9999967036769327,139.29352831851892
8.208,0.9999967082761732,139.2511562655705
8.216000000000001,0.9999967133045636,139.20877616028005
8.224,0.9999967187630133,139.16638799350096
8.232,0.9999967246523903,139.12399175608084
8.24,0.9999967309735215,139.08158743886153
8.248000000000001,0.9999967377271939,139.03917503267905
8.256,0.9999967449141544,138.9967545283639
8.264,0.9999967525351099,138.9543259167409
8.272,0.9999967605907288,138.91188918862926
8.280000000000001,0.9999967690816401,138.8694443348427
8.288,0.9999967780084351,138.82699134618952
8.296,0.9999967873716669,138.78453021347255
8.304,0.9999967971718513,138.74206092748915
8.312,0.9999968074094674,138.69958347903167
8.32,0.9999968180849583,138.6570978588869
8.328,0.9999968291987306,138.6146040578367
8.336,0.999996840751156,138.5721020666576
8.344,0.9999968527425714,138.52959187612123
8.352,0.9999968651732805,138.4870734769942
8.36,0.9999968780435513,138.44454686003814
8.368,0.9999968913536216,138.4020120160099
8.376,0.9999969051036948,138.35946893566154
8.384,0.9999969192939439,138.3169176097404
8.392,0.9999969339245103,138.27435802898918
8.4,0.999996948995506,138.23179018414612
8.408,0.9999969645070124,138.18921406594495
8.416,0.9999969804590834,138.14662966511503
8.424,0.9999969968517441,138.10403697238146
8.432,0.9999970136849932,138.06143597846508
8.44,0.9999970309588018,138.01882667408273
8.448,0.999997048673117,137.97620904994716
8.456,0.9999970668278613,137.93358309676734
8.464,0.9999970854229326,137.89094880524823
8.472,0.9999971044582069,137.84830616609133
8.48,0.9999971239335386,137.8056551699944
8.488,0.9999971438487613,137.76299580765175
8.496,0.9999971642036899,137.7203280697544
8.504,0.9999971849981195,137.67765194699012
8.512,0.9999972062318295,137.6349674300435
8.52,0.9999972279045823,137.5922745095962
8.528,0.9999972500161264,137.549573176327
8.536,0.9999972725661966,137.506863420912
8.544,0.9999972955545154,137.46414523402464
8.552,0.9999973189807949,137.42141860633612
8.56,0.9999973428447383,137.37868352851507
8.568,0.999997367146041,137.33593999122823
8.576,0.9999973918843919,137.2931879851402
8.584,0.9999974170594765,137.25042750091396
8.592,0.9999974426709772,137.20765852921065
8.6,0.9999974687185755,137.16488106069005
8.608,0.9999974952019536,137.12209508601063
8.616,0.9999975221207976,137.0793005958298
8.624,0.9999975494747979,137.036497580804
8.632,0.9999975772636522,136.99368603158896
8.64,0.9999976054870681,136.95086593883997
8.648,0.9999976341447633,136.90803729321195
8.656,0.9999976632364714,136.86520008535973
8.664,0.9999976927619413,136.8223543059384
8.672,0.9999977227209417,136.7794999456033
8.68,0.9999977531132627,136.73663699501043
8.688,0.9999977839387193,136.69376544481662
8.696,0.9999978151971545,136.65088528567986
8.704,0.9999978468884418,136.60799650825953
8.712,0.9999978790124885,136.5650991032166
8.72,0.9999979115692395,136.522193061214
8.728,0.9999979445586806,136.4792783729169
8.736,0.9999979779808429,136.43635502899292
8.744,0.999998011835805,136.3934230201126
8.752,0.9999980461236984,136.35048233694954
8.76,0.999998080844712,136.30753297018086
8.768,0.9999981159990945,136.26457491048748
8.776,0.9999981515871618,136.22160814855454
8.784,0.9999981876092998,136.1786326750716
8.792,0.9999982240659704,136.13564848073327
8.8,0.9999982609577165,136.09265555623924
8.808,0.9999982982851671,136.04965389229514
8.815999999999999,0.9999983360490445,136.0066434796125
8.824,0.9999983742501689,135.96362430890952
8.832,0.999998412889466,135.92059637091126
8.84,0.9999984519679725,135.87755965635031
8.847999999999999,0.9999984914868447,135.8345141559671
8.856,0.9999985314473638,135.79145986051046
8.864,0.9999985718509465,135.7483967607381
8.872,0.9999986126991498,135.7053248474171
8.879999999999999,0.9999986539936823,135.6622441113246
8.888,0.9999986957364116,135.6191545432481
8.896,0.999998737929374,135.57605613398627
8.904,0.9999987805747854,135.5329488743494
8.911999999999999,0.99999882367505,135.48983275516002
8.92,0.9999988672327728,135.4467077672536
8.928,0.9999989112507696,135.4035739014792
8.936,0.9999989557320808,135.36043114870006
8.943999999999999,0.9999990006799817,135.3172794997943
8.952,0.9999990460979985,135.2741189456558
8.96,0.9999990919899209,135.23094947719468
8.968,0.9999991383598165,135.1877710853384
8.975999999999999,0.9999991852120476,135.14458376103215
8.984,0.9999992325512864,135.10138749524
8.992,0.9999992803825332,135.0581822789456
9.0,0.999999328711134,135.01496810315305
9.008,0.9999993775427994,134.97174495888783
9.016,0.9999994268836266,134.92851283719767
9.024000000000001,0.9999994767401177,134.8852717291536
9.032,0.9999995271192048,134.84202162585086
9.04,0.9999995780282721,134.79876251840992
9.048,0.9999996294751817,134.75549439797751
9.056000000000001,0.9999996814682999,134.71221725572784
9.064,0.9999997340165244,134.66893108286345
9.072,0.9999997871293148,134.62563587061655
9.08,0.9999998408167224,134.5823316102502
9.088000000000001,0.9999998950894238,134.53901829305937
9.096,0.9999999499587556,134.49569591037235
9.104,1.0,134.45236445355187
9.112,1.0,134.4090239139965
9.120000000000001,0.9999999999999999,134.36567428314206
9.128,1.0,134.3223155524628
9.136,1.0,134.27894771347306
9.144,1.0,134.23557075772848
9.152000000000001,1.0,134.19218467682765
9.16,0.9999999999999999,134.14878946241348
9.168,1.0,134.10538510617494
9.176,1.0,134.06197159984828
9.184000000000001,0.9999999999999999,134.0185489352191
9.192,0.9999999999999999,133.97511710412357
9.2,0.9999999999999999,133.93167609845017
9.208,1.0,133.8882259101415
9.216000000000001,0.9999999999999999,133.84476653119575
9.224,1.0,133.80129795366852
9.232,0.9999999999999999,133.75782016967446
9.24,1.0,133.7143331713889
9.248000000000001,1.0,133.67083695104958
9.256,1.0,133.62733150095835
9.264,1.0,133.5838168134827
9.272,1.0,133.5402928810575
9.280000000000001,1.0,133.49675969618622
9.288,0.9999999999999999,133.45321725144285
9.296,0.9999999999999998,133.40966553947305
9.304,1.0,133.3661045529953
9.312000000000001,1.0,133.32253428480246
9.32,1.0,133.27895472776248
9.328,1.0,133.23536587481948
9.336,0.9999999999999999,133.19176771899427
9.344,0.9999999999999999,133.14816025338487
9.352,0.9999999999999998,133.1045434711668
9.36,1.0,133.06091736559262
9.368,1.0,133.01728192999184
9.376,1.0,132.97363715776967
9.384,0.9999999999999999,132.92998304240587
9.392,1.0,132.88631957745275
9.4,1.0,132.84264675653267
9.408,1.0,132.79896457333484
9.416,0.9999999999999999,132.75527302161115
9.424,1.0,132.71157209517156
9.432,0.9999999999999999,132.66786178787788
9.44,1.0,132.62414209363686
9.448,0.9999999999999999,132.58041300639184
9.456,1.0,132.53667452011277
9.464,1.0,132.49292662878494
9.472,1.0,132.44916932639546
9.48,1.0,132.40540260691813
9.488,1.0,132.3616264642954
9.496,1.0000000000000002,132.31784089241825
9.504,1.0,132.27404588510288
9.512,0.9999999999999999,132.23024143606415
9.52,1.0,132.1864275388853
9.528,1.0,132.1426041869839
9.536,1.0,132.09877137357265
9.544,0.9999999999999999,132.05492909161566
9.552,1.0,132.01107733377876
9.56,1.0,131.96721609237363
9.568,1.0,131.92334535929496
9.576,1.0,131.8794651259495
9.584,1.0,131.83557538317734
9.592,0.9999999999999999,131.79167612116268
9.6,0.9999999999999999,131.74776732933498
9.608,0.9999999999999999,131.70384899625822
9.616,0.9999999999999999,131.65992110950742
9.624,0.9999999999999999,131.61598365553178
9.632,1.0,131.5720366195021
9.64,1.0,131.52807998514214
9.648,1.0,131.48411373454218
9.656,1.0,131.44013784795305
9.664,1.0,131.39615230355977
9.672,1.0,131.3521570772329
9.68,0.9999999999999999,131.30815214225677
9.688,0.9999999999999999,131.26413746903285
9.696,1.0,131.22011302475764
9.704,1.0,131.17607877307438
9.712,1.0,131.1320346736979
