freq,mag,phase
6.0,1.0000084177768358,-1.4034920766185426
6.030769152,1.0000001038127713,-2.3474988074459624
6.061538304,0.9999914141782943,-3.29165347270173
6.092307456,0.9999830141933854,-4.235901506802061
6.12307712,0.9999749161132633,-5.18027635457763
6.153846272,0.9999671627652412,-6.124782511444516
6.184615424,0.9999601301878648,-7.069415771942969
6.215384576,0.99995382131965,-8.0141978090138
6.246153728,0.9999485499634756,-8.959105450544735
6.27692288,0.9999444184213139,-9.90413751340219
6.307692544,0.9999414193952116,-10.849372706792305
6.338461696,0.9999396472379335,-11.79477916472517
6.369230848,0.9999391497495645,-12.740387367277279
6.4,0.999940022457968,-13.686146862127023
6.430769152,0.9999421949484399,-14.632148173047108
6.461538304,0.9999457327145836,-15.578363770355717
6.492307456,0.9999503630201027,-16.524829191908513
6.52307712,0.9999559451180641,-17.471508724561865
6.553846272,0.9999626483904693,-18.418462264802066
6.584615424,0.9999701717101745,-19.365632227763736
6.615384576,0.999978248624849,-20.31311752888635
6.646153728,0.9999867985900531,-21.26087972441024
6.67692288,0.9999956908123577,-22.208890848445872
6.707692544,1.0000045313717372,-23.15717247374543
6.738461696,1.0000133191274896,-24.105746243219595
6.769230848,1.0000216876623347,-25.05459571653829
6.8,1.0000295466725326,-26.003726548584506
6.830769152,1.0000366648314476,-26.953099550861307
6.861538304,1.0000428324905588,-27.902765463901353
6.892307456,1.0000481475850793,-28.85266861465234
6.92307712,1.0000520358094267,-29.802824180884663
6.953846272,1.0000548745816111,-30.75319375542919
6.984615424,1.0000563454744085,-31.70375637572449
7.015384576,1.000056361189339,-32.654592140526425
7.046153728,1.0000549862191226,-33.60560859388068
7.07692288,1.0000523964146453,-34.55683467515751
7.107692544,1.00004855078333,-35.50819705742106
7.138461696,1.0000433641005322,-36.4597242353468
7.169230848,1.0000370460238388,-37.411408999073295
7.2,1.0000299026324115,-38.36327901572888
7.230769152,1.0000219794870446,-39.31526530945245
7.261538304,1.0000133440425423,-40.267380025300575
7.292307456,1.0000041908955688,-41.21961673733191
7.32307712,0.9999949665620237,-42.17196958601962
7.353846272,0.9999857013932238,-43.124495966569626
7.384615424,0.9999767938961795,-44.07710889365388
7.415384576,0.9999682134782679,-45.02985557449314
7.446153728,0.9999600170125672,-45.98272309820585
7.47692288,0.9999527509379833,-46.935753152914145
7.507692544,0.9999465378705928,-47.8889190982931
7.538461696,0.9999415129139697,-48.84225914122825
7.569230848,0.9999376366206915,-49.79574172659377
7.6,0.9999351659811406,-50.74939907573914
7.630769152,0.9999341359850065,-51.7032761886085
7.661538304,0.9999344933820974,-52.6572994470714
7.692307456,0.999936196702847,-53.61158989668638
7.72307712,0.9999393624454846,-54.566096741019344
7.753846272,0.9999439404260435,-55.52083848350274
7.784615424,0.9999495295621756,-56.475822996056074
7.815384576,0.9999565552570098,-57.431056374087156
7.846153728,0.9999641757799191,-58.386557501867486
7.87692288,0.999972900726272,-59.342380818702146
7.907692544,0.9999821898853246,-60.298435404306005
7.938461696,0.9999917905968093,-61.25481146469494
7.969230848,1.0000015250651881,-62.211441844128636
8.0,1.0000112352892037,-63.16840746701442
8.030769152,1.0000205647588765,-64.12565155773166
8.061538304,1.0000295568445927,-65.08316592813767
8.092307456,1.0000377374728067,-66.0409562065815
8.12307712,1.00004517971771,-66.99903436125281
8.153846272,1.00005137324226,-67.95738593860175
8.184615424,1.0000564249971449,-68.91596909305656
8.215384576,1.0000600818096037,-69.87478827815707
8.246153728,1.0000624419041122,-70.83388325556477
8.27692288,1.000063270283426,-71.79319304281601
8.307692544,1.000062297160717,-72.75269426072617
8.338461696,1.000060139757395,-73.71240132255761
8.369230848,1.0000563818626051,-74.6722708144972
8.4,1.0000513713717105,-75.6323089513237
8.430769152,1.0000449534581357,-76.59249148568406
8.461538304,1.0000374731828732,-77.55284313016993
8.492307456,1.000029004305523,-78.51332934551297
8.52307712,1.0000197476170916,-79.47391405806681
8.553846272,1.0000100111135792,-80.43464701800781
8.584615424,0.9999998120616598,-81.39549616984222
8.615385088,0.9999895639536526,-82.35646734558095
8.64615424,0.9999793689990439,-83.31750549929639
8.676923392,0.9999695159690855,-84.2787093422557
8.707692544,0.9999603484847042,-85.23999941531959
8.738461696,0.9999520029174336,-86.20142918082088
8.769230848,0.9999445469952367,-87.16297538566988
8.8,0.9999382623566518,-88.12468299188501
8.830769152,0.9999333671986836,-89.08651962232825
8.861538304,0.9999299061157556,-90.04853808526995
8.892307456,0.9999279501816132,-91.01073251636875
8.923076608,0.9999275530746469,-91.97310838113648
8.95384576,0.9999287789115907,-92.9356949993126
8.984614912,0.9999316916226247,-93.89845688146933
9.015385088,0.9999360359611327,-94.86146530360294
9.04615424,0.9999418065728655,-95.8247273568686
9.076923392,0.9999489474252143,-96.78825940922266
9.107692544,0.9999571737505493,-97.7520067082605
9.138461696,0.9999664341767616,-98.71605634097814
9.169230848,0.9999764310148804,-99.68038481425549
9.2,0.9999869553716404,-100.64499270400778
9.230769152,0.9999978268936225,-101.60989472177033
9.261538304,1.000008747966007,-102.57506125425337
9.292307456,1.0000194875126343,-103.54053667275075
9.323076608,1.0000296557742392,-104.5063105695117
9.35384576,1.0000392971814043,-105.47235575958945
9.384614912,1.0000480743352247,-106.43862964696395
9.415385088,1.0000556762963746,-107.4052345977651
9.44615424,1.0000620048717386,-108.37204467534889
9.476923392,1.0000667548759996,-109.33912465287138
9.507692544,1.0000701224488704,-110.30642278619668
9.538461696,1.000071784537573,-111.27394505933002
9.569230848,1.0000718210881796,-112.24164005665739
9.6,1.0000700619703506,-113.20952052862599
9.630769152,1.0000665956163268,-114.17760876093233
9.661538304,1.0000616797725468,-115.14580221989702
9.692307456,1.0000551449424964,-116.11415820605642
9.723076608,1.0000472686375848,-117.08262936200599
9.75384576,1.0000382509361334,-118.05121803762452
9.784614912,1.0000282313312858,-119.01990012044568
9.815385088,1.0000174250304696,-119.98869045981488
9.84615424,1.0000061143169854,-120.95756296279991
9.876923392,0.9999945895617682,-121.92654075664832
9.907692544,0.9999829903371418,-122.89556220896336
9.938461696,0.9999717376935735,-123.86468856664001
9.969230848,0.9999609150342759,-124.83389284682391
10.0,0.9999509460269013,-125.80318409110315
10.030769152,0.999941909345752,-126.77257745941948
10.061538304,0.9999341982796944,-127.74207136824229
10.092307456,0.9999278543421608,-128.71169291418087
10.123076608,0.9999231487282848,-129.68140290229883
10.15384576,0.9999200152601931,-130.65128891883808
10.184614912,0.999918764154859,-131.6213023515711
10.215385088,0.9999192714793745,-132.59151158912098
10.24615424,0.9999215441760763,-133.561884553696
10.276923392,0.9999256298931883,-134.5324670060974
10.307692544,0.9999314178897173,-135.503259112318
10.338461696,0.9999387706322947,-136.47428365148104
10.369230848,0.9999475538611364,-137.44552563333724
10.4,0.999957591430567,-138.41702419500209
10.430769152,0.999968583421628,-139.38878374032063
10.461538304,0.9999803767841464,-140.36081653009984
10.492307456,0.9999926500088973,-141.33310509668956
10.523076608,1.0000050614555287,-142.30568927352525
10.55384576,1.000017434530385,-143.27853838446484
10.584614912,1.0000295281940605,-144.25164221232737
10.615385088,1.0000408325578192,-145.22501845429184
10.64615424,1.0000514052831422,-146.19864579580295
10.676923392,1.0000607775844397,-147.172552976037
10.707692544,1.0000687039787346,-148.1466683126614
10.738461696,1.0000752007025806,-149.12102013775126
10.769230848,1.0000799988002071,-150.09556456415345
10.8,1.0000828040511052,-151.07032535529234
10.830769152,1.0000837693731157,-152.04523696359936
10.861538304,1.0000828441448213,-153.02032850286318
10.892307456,1.0000798301973228,-153.9955396480454
10.923076608,1.000075009680573,-154.97089440612083
10.95384576,1.0000684321525404,-155.94634616417346
10.984614912,1.000060068694185,-156.9218835233247
11.015385088,1.0000503102108875,-157.89749474017054
11.04615424,1.0000393333094193,-158.87315520523455
11.076923392,1.0000272835641977,-159.84887625775795
11.107692544,1.0000144932590607,-160.82464695556328
11.138461696,1.0000011940528275,-161.80043372580556
11.169230848,0.9999877447188688,-162.77624795012613
11.2,0.9999744812863728,-163.752102377294
11.230769152,0.9999615817199676,-164.72797538493316
11.261538304,0.9999494808275965,-165.70387314451932
11.292307456,0.9999384378446772,-166.67980949115164
11.323076608,0.9999285682617584,-167.6558017060741
11.35384576,0.9999203322174581,-168.63185496043005
11.384614912,0.9999137457904504,-169.60797421510242
11.415385088,0.9999091149763653,-170.5841845373568
11.44615424,0.9999064388128773,-171.56046903679547
11.476923392,0.999905792055028,-172.53689169859274
11.507692544,0.9999074046917333,-173.5134358659441
11.538461696,0.9999111458876914,-174.49013227628546
11.569230848,0.9999167847196084,-175.46701013208192
11.6,0.999924401476897,-176.44404625259264
11.630769152,0.9999338011747693,-177.4212778911609
11.661538304,0.9999447474795351,-178.39875361762083
11.692307456,0.9999569401222204,-179.37642379841486
11.723076608,0.9999703071394282,179.64565469469818
11.75384576,0.9999844322394227,178.66750236074654
11.784614912,0.9999988645383472,177.6891198242885
11.815385088,1.000013509649165,176.71048308098275
11.84615424,1.0000279580794744,175.73158295980159
11.876923392,1.0000417829812467,174.75244790308784
11.907692544,1.0000547401510071,173.77310311157336
11.938461696,1.0000665397107027,172.79351313511967
11.969230848,1.0000769432227588,171.8137227189024
12.0,1.000085626914499,170.8337340316901
12.030769152,1.0000922653924127,169.85355788191143
12.061538304,1.0000968924268785,168.87322845977982
12.092307456,1.0000992381985254,167.89276083071408
12.123076608,1.0000994755184074,166.91216885022314
12.15384576,1.0000972084329067,165.93145998109898
12.184614912,1.0000926516130615,164.95068601044426
12.215385088,1.0000860040617046,163.96984722175813
12.24615424,1.000077301085515,162.9889814954527
12.276923392,1.000066543041823,162.00809788656335
12.307692544,1.0000542597476871,161.02721583272012
12.338461696,1.0000404349791212,160.04633492284793
12.369230848,1.000025648021449,159.06548596215728
12.4,1.0000100104901037,158.08466820785935
12.430769152,0.9999940237127568,157.1039131763756
12.461538304,0.99997783813112,156.12319062563103
12.492307456,0.9999621520305728,155.14251875329015
12.523076608,0.9999470432023161,154.1618927985528
12.55384576,0.9999329888832458,153.1813221162981
12.584614912,0.9999201624980696,152.20076718743064
12.615385088,0.9999092208645656,151.22024838007516
12.64615424,0.9998999513350921,150.23972028842832
12.676923392,0.9998929965031838,149.2591985034018
12.707692544,0.9998884067573953,148.27865548039762
12.738461696,0.9998862660685567,147.2980627169802
12.769230848,0.9998865447662815,146.31740370525696
12.8,0.9998895812886416,145.3366620037537
12.830769152,0.9998950561694315,144.35582296237686
12.861538304,0.9999029190872046,143.3748504876834
12.892307456,0.9999130629496269,142.39373733517178
12.923076608,0.9999252890337618,141.41246584158085
12.95384576,0.999939276198624,140.4310053635229
12.984614912,0.9999547943617555,139.44936171113517
13.015385088,0.9999714882143295,138.46750552981214
13.04615424,0.9999889435455477,137.48544670404334
13.076923392,1.0000068924379046,136.50316840648622
13.107692544,1.0000247543287213,135.52068133237216
13.138461696,1.0000422326802052,134.53797658548325
13.169230848,1.0000588173811784,133.5550699212108
13.2,1.0000743317914085,132.57195140111918
13.230769152,1.0000881416664136,131.58865208584686
13.261538304,1.0001000824191264,130.60519772996696
13.292307456,1.0001098326731528,129.62158361175653
13.323076608,1.000117126398822,128.63784061543532
13.35384576,1.0001216861246711,127.65398433575747
13.384614912,1.0001236241679696,126.67005012086774
13.415385088,1.0001225512783043,125.68606745403315
13.44615424,1.0001185811480364,124.7020680486223
13.476923392,1.0001119778120358,123.71804020927408
13.507692544,1.000102543888782,122.73403996698062
13.538461696,1.0000905701930982,121.75009135939953
13.569230848,1.0000763192338156,120.76620832777832
13.6,1.0000601449452826,119.78241888955908
13.630769152,1.0000422046951107,118.79874491456383
13.661538304,1.0000232552496184,117.81519882840416
13.692307456,1.000003266290698,116.8317718225018
13.723076608,0.9999829743300255,115.84849231220716
13.75384576,0.9999626840751475,114.86536973865745
13.784614912,0.9999429467269213,113.88240048587858
13.815385088,0.9999241782123809,112.89955855571476
13.84615424,0.9999069732340148,111.91685299273651
13.876923392,0.9998916125787453,110.93428174320316
13.907692544,0.999878372251098,109.95180601919299
13.938461696,0.9998677043640074,108.96942375767779
13.969230848,0.9998599160797274,107.98712332194539
14.0,0.9998550942242564,107.00485410812557
