freq,mag,phase
6.0,0.999996915355524,-91.86089356346737
6.008,0.9999960051410692,-92.22371262518688
6.016,0.9999951199712814,-92.5855522814973
6.024,0.9999942594222411,-92.9464151282153
6.032,0.9999934230742751,-93.3063037962858
6.04,0.9999926105119615,-93.66522095100557
6.048,0.999991821324136,-94.02316929125492
6.056,0.9999910551038924,-94.3801515487376
6.064,0.9999903114485864,-94.7361704872286
6.072,0.9999895899598346,-95.09122890183032
6.08,0.9999888902435132,-95.44532961823687
6.088,0.9999882119097584,-95.79847549200657
6.096,0.9999875545729605,-96.15066940784288
6.104,0.9999869178517605,-96.50191427888326
6.112,0.9999863013690461,-96.85221304599662
6.12,0.9999857047519423,-97.20156867708897
6.128,0.9999851276318062,-97.54998416641723
6.136,0.999984569644217,-97.89746253391161
6.144,0.9999840304289681,-98.24400682450595
6.152,0.9999835096300539,-98.58962010747673
6.16,0.9999830068956612,-98.93430547579008
6.168,0.9999825218781553,-99.2780660454572
6.176,0.9999820542340659,-99.62090495489801
6.184,0.9999816036240758,-99.9628253643132
6.192,0.9999811697130035,-100.30383045506423
6.2,0.9999807521697881,-100.64392342906187
6.208,0.9999803506674736,-100.98310750816268
6.216,0.9999799648831912,-101.32138593357382
6.224,0.9999795944981417,-101.65876196526602
6.232,0.9999792391975757,-101.99523888139456
6.24,0.9999788986707764,-102.3308199777283
6.248,0.9999785726110383,-102.665508567087
6.256,0.9999782607156477,-102.9993079787864
6.264,0.9999779626858598,-103.33222155809148
6.272,0.9999776782268796,-103.66425266567744
6.28,0.9999774070478374,-103.99540467709879
6.288,0.9999771488617681,-104.32568098226622
6.296,0.9999769033855866,-104.65508498493121
6.304,0.999976670340064,-104.98362010217852
6.312,0.9999764494498046,-105.31128976392638
6.32,0.9999762404432212,-105.6380974124342
6.328,0.9999760430525084,-105.96404650181815
6.336,0.9999758570136192,-106.28914049757404
6.344,0.9999756820662388,-106.61338287610806
6.352,0.9999755179537576,-106.93677712427449
6.36,0.9999753644232454,-107.25932673892133
6.368,0.9999752212254246,-107.58103522644299
6.376,0.9999750881146431,-107.90190610234026
6.384,0.9999749648488467,-108.22194289078764
6.392,0.9999748511895512,-108.54114912420783
6.4,0.9999747469018158,-108.85952834285318
6.408,0.9999746517542131,-109.17708409439447
6.416,0.999974565518802,-109.49381993351639
6.424,0.9999744879710989,-109.80973942152018
6.432,0.9999744188900485,-110.12484612593303
6.44,0.9999743580579955,-110.43914362012427
6.448,0.9999743052606548,-110.75263548292837
6.456,0.9999742602870826,-111.06532529827462
6.464,0.9999742229296472,-111.37721665482333
6.472,0.9999741929839991,-111.6883131456087
6.48,0.9999741702490414,-111.99861836768807
6.4879999999999995,0.9999741545269003,-112.30813592179764
6.496,0.9999741456228953,-112.61686941201468
6.504,0.9999741433455086,-112.92482244542553
6.5120000000000005,0.9999741475063564,-113.23199863180064
6.52,0.9999741579201576,-113.5384015832748
6.5280000000000005,0.9999741744047049,-113.84403491403447
6.536,0.9999741967808337,-114.14890224001006
6.5440000000000005,0.9999742248723924,-114.45300717857526
6.552,0.9999742585062128,-114.75635334825117
6.5600000000000005,0.9999742975120793,-115.0589443684173
6.568,0.9999743417226987,-115.36078385902728
6.5760000000000005,0.9999743909736712,-115.66187544033134
6.584,0.9999744451034583,-115.96222273260327
6.592,0.9999745039533553,-116.26182935587391
6.6,0.9999745673674597,-116.56069892966963
6.608,0.9999746351926412,-116.85883507275611
6.616,0.9999747072785122,-117.15624140288797
6.624,0.9999747834773989,-117.45292153656315
6.632,0.9999748636443094,-117.74887908878284
6.64,0.9999749476369063,-118.04411767281645
6.648,0.9999750353154762,-118.3386408999716
6.656,0.9999751265428991,-118.63245237936941
6.664,0.9999752211846209,-118.92555571772434
6.672,0.9999753191086235,-119.21795451912914
6.68,0.9999754201853944,-119.50965238484467
6.688,0.9999755242878997,-119.8006529130945
6.696,0.9999756312915536,-120.09095969886388
6.704,0.9999757410741902,-120.38057633370386
6.712,0.9999758535160349,-120.66950640553945
6.72,0.9999759684996757,-120.95775349848284
6.728,0.9999760859100344,-121.24532119265048
6.736,0.9999762056343391,-121.53221306398503
6.744,0.9999763275620955,-121.81843268408137
6.752,0.9999764515850601,-122.10398362001699
6.76,0.9999765775972099,-122.38886943418638
6.768,0.9999767054947181,-122.67309368413997
6.776,0.9999768351759232,-122.95665992242661
6.784,0.9999769665413046,-123.23957169644056
6.792,0.9999770994934538,-123.52183254827217
6.8,0.9999772339370475,-123.80344601456245
6.808,0.999977369778822,-124.08441562636175
6.816,0.9999775069275453,-124.36474490899177
6.824,0.9999776452939909,-124.64443738191189
6.832,0.9999777847909123,-124.92349655858858
6.84,0.9999779253330161,-125.20192594636899
6.848,0.9999780668369365,-125.47972904635753
6.856,0.9999782092212096,-125.75690935329648
6.864,0.999978352406248,-126.03347035544974
6.872,0.9999784963143148,-126.30941553449011
6.88,0.9999786408694998,-126.58474836538987
6.888,0.9999787859976936,-126.85947231631461
6.896,0.999978931626563,-127.1335908485205
6.904,0.9999790776855265,-127.40710741625448
6.912,0.9999792241057304,-127.68002546665777
6.92,0.9999793708200243,-127.95234843967253
6.928,0.9999795177629369,-128.22407976795128
6.936,0.9999796648706533,-128.4952228767696
6.944,0.9999798120809902,-128.76578118394173
6.952,0.9999799593333735,-129.0357580997388
6.96,0.9999801065688151,-129.30515702681038
6.968,0.9999802537298896,-129.57398136010823
6.976,0.9999804007607119,-129.8422344868134
6.984,0.9999805476069147,-130.10991978626566
6.992,0.9999806942156257,-130.37704062989573
7.0,0.9999808405354471,-130.64360038115996
7.008,0.9999809865164313,-130.90960239547795
7.016,0.9999811321100613,-131.17505002017234
7.024,0.9999812772692286,-131.43994659441108
7.032,0.9999814219482116,-131.7042954491525
7.04,0.9999815661026543,-131.9680999070925
7.048,0.9999817096895469,-132.23136328261396
7.056,0.9999818526672039,-132.4940888817389
7.064,0.9999819949952432,-132.75628000208255
7.072,0.9999821366345679,-133.01793993280978
7.08,0.9999822775473441,-133.27907195459375
7.088,0.9999824176969829,-133.53967933957668
7.096,0.9999825570481182,-133.79976535133267
7.104,0.9999826955665913,-134.0593332448329
7.112,0.9999828332194275,-134.3183862664124
7.12,0.9999829699748196,-134.57692765373926
7.128,0.9999831058021085,-134.83496063578548
7.136,0.9999832406717645,-135.09248843280005
7.144,0.9999833745553683,-135.34951425628364
7.152,0.9999835074255948,-135.60604130896542
7.16,0.9999836392561919,-135.86207278478145
7.168,0.9999837700219656,-136.11761186885516
7.176,0.9999838996987602,-136.3726617374793
7.184,0.9999840282634429,-136.6272255580996
7.192,0.9999841556938848,-136.88130648930075
7.2,0.999984281968945,-137.13490768079302
7.208,0.9999844070684524,-137.3880322734014
7.216,0.9999845309731908,-137.64068339905575
7.224,0.9999846536648811,-137.89286418078296
7.232,0.999984775126165,-138.14457773270047
7.24,0.9999848953405901,-138.39582716001107
7.248,0.9999850142925925,-138.6466155589995
7.256,0.9999851319674818,-138.89694601703053
7.264,0.9999852483514254,-139.14682161254805
7.272,0.9999853634314335,-139.39624541507607
7.28,0.9999854771953425,-139.64522048522073
7.288,0.9999855896318024,-139.89374987467377
7.296,0.9999857007302593,-140.14183662621735
7.304,0.9999858104809426,-140.38948377373012
7.312,0.9999859188748497,-140.63669434219446
7.32,0.9999860259037316,-140.88347134770515
7.328,0.9999861315600792,-141.1298177974791
7.336,0.9999862358371089,-141.3757366898663
7.344,0.9999863387287491,-141.62123101436194
7.352,0.9999864402296262,-141.8663037516197
7.36,0.9999865403350515,-142.11095787346613
7.368,0.9999866390410075,-142.35519634291606
7.376,0.999986736344135,-142.59902211418913
7.384,0.99998683224172,-142.84243813272735
7.392,0.9999869267316809,-143.08544733521393
7.4,0.9999870198125558,-143.32805264959256
7.4079999999999995,0.9999871114834897,-143.57025699508813
7.416,0.999987201744223,-143.81206328222842
7.4239999999999995,0.9999872905950781,-144.05347441286625
7.432,0.9999873780369484,-144.29449328020326
7.4399999999999995,0.9999874640712855,-144.53512276881392
7.448,0.9999875487000881,-144.77536575467093
7.4559999999999995,0.9999876319258902,-145.0152251051711
7.464,0.9999877137517503,-145.25470367916236
7.4719999999999995,0.9999877941812378,-145.49380432697134
7.48,0.9999878732184247,-145.73252989043206
7.4879999999999995,0.9999879508678731,-145.970883202915
7.496,0.9999880271346243,-146.2088670893575
7.504,0.9999881020241883,-146.44648436629424
7.5120000000000005,0.9999881755425335,-146.68373784188907
7.52,0.9999882476960754,-146.92063031596706
7.5280000000000005,0.9999883184916674,-147.15716458004772
7.536,0.9999883879365895,-147.39334341737847
7.5440000000000005,0.999988456038539,-147.6291696029692
7.552,0.9999885228056201,-147.86464590362695
7.5600000000000005,0.9999885882463349,-148.0997750779919
7.568,0.999988652369572,-148.3345598765733
7.5760000000000005,0.9999887151845992,-148.56900304178674
7.584,0.9999887767010528,-148.80310730799118
7.5920000000000005,0.9999888369289279,-149.03687540152734
7.6,0.9999888958785704,-149.27031004075613
7.6080000000000005,0.9999889535606673,-149.50341393609796
7.616,0.9999890099862374,-149.73618979007227
7.6240000000000006,0.9999890651666239,-149.9686402973381
7.632,0.9999891191134842,-150.2007681447344
7.640000000000001,0.9999891718387816,-150.4325760113218
7.648,0.9999892233547777,-150.66406656842392
7.656000000000001,0.9999892736740233,-150.89524247966992
7.664,0.999989322809351,-151.126106401037
7.672,0.9999893707738656,-151.35666098089374
7.68,0.9999894175809376,-151.58690886004345
7.688,0.9999894632441946,-151.81685267176857
7.696,0.9999895077775133,-152.04649504187472
7.704,0.9999895511950128,-152.27583858873587
7.712,0.9999895935110457,-152.50488592333943
7.72,0.9999896347401923,-152.7336396493321
7.728,0.9999896748972511,-152.96210236306567
7.736,0.9999897139972337,-153.19027665364362
7.744,0.999989752055356,-153.41816510296775
7.752,0.9999897890870325,-153.6457702857855
7.76,0.9999898251078678,-153.87309476973712
7.768,0.9999898601336511,-154.10014111540377
7.776,0.9999898941803491,-154.32691187635544
7.784,0.9999899272640986,-154.55340959919945
7.792,0.9999899594012007,-154.7796368236292
7.8,0.9999899906081142,-155.00559608247318
7.808,0.9999900209014494,-155.23128990174433
7.816,0.999990050297961,-155.45672080068962
7.824,0.999990078814542,-155.68189129184003
7.832,0.999990106468219,-155.90680388106054
7.84,0.9999901332761447,-156.13146106760067
7.848,0.9999901592555921,-156.35586534414512
7.856,0.9999901844239492,-156.5800191968646
7.864,0.9999902087987128,-156.80392510546713
7.872,0.9999902323974832,-157.02758554324927
7.88,0.999990255237958,-157.25100297714775
7.888,0.9999902773379271,-157.47417986779138
7.896,0.9999902987152665,-157.69711866955294
7.904,0.9999903193879347,-157.9198218306015
7.912,0.9999903393739645,-158.1422917929549
7.92,0.9999903586914609,-158.3645309925322
7.928,0.9999903773585938,-158.58654185920665
7.936,0.9999903953935936,-158.80832681685868
7.944,0.9999904128147465,-159.0298882834289
7.952,0.9999904296403892,-159.25122867097167
7.96,0.9999904458889041,-159.4723503857084
7.968,0.9999904615787146,-159.69325582808136
7.976,0.9999904767282801,-159.91394739280736
7.984,0.9999904913560927,-160.13442746893188
7.992,0.9999905054806703,-160.354698439883
8.0,0.9999905191205538,-160.5747626835258
8.008,0.9999905322943027,-160.79462257221655
8.016,0.9999905450204893,-161.0142804728576
8.024000000000001,0.999990557317697,-161.23373874695162
8.032,0.9999905692045125,-161.45299975065637
8.04,0.9999905806995244,-161.67206583484008
8.048,0.9999905918213188,-161.8909393451359
8.056000000000001,0.9999906025884737,-162.10962262199726
8.064,0.9999906130195569,-162.3281180007529
8.072,0.9999906231331201,-162.54642781166257
8.08,0.9999906329476971,-162.76455437997205
8.088000000000001,0.9999906424817988,-162.98250002596882
8.096,0.9999906517539088,-163.2002670650376
8.104,0.9999906607824818,-163.4178578077162
8.112,0.9999906695859376,-163.6352745597512
8.120000000000001,0.9999906781826591,-163.85251962215366
8.128,0.9999906865909887,-164.0695952912553
8.136,0.9999906948292232,-164.2865038587644
8.144,0.9999907029156133,-164.503247611822
8.152000000000001,0.9999907108683566,-164.71982883305776
8.16,0.9999907187055977,-164.93624980064655
8.168,0.9999907264454229,-165.15251278836448
8.176,0.9999907341058574,-165.36862006564556
8.184000000000001,0.9999907417048626,-165.58457389763768
8.192,0.999990749260332,-165.80037654525938
8.2,0.9999907567900895,-166.01603026525643
8.208,0.9999907643118855,-166.23153731025823
8.216000000000001,0.9999907718433941,-166.4468999288345
8.224,0.9999907794022094,-166.66212036555194
8.232,0.9999907870058448,-166.8772008610311
8.24,0.9999907946717276,-167.09214365200305
8.248000000000001,0.9999908024171977,-167.3069509713661
8.256,0.9999908102595052,-167.52162504824273
8.264,0.9999908182158059,-167.73616810803665
8.272,0.9999908263031607,-167.95058237248963
8.280000000000001,0.9999908345385315,-168.16487005973826
8.288,0.9999908429387798,-168.37903338437118
8.296,0.9999908515206631,-168.59307455748618
8.304,0.9999908603008327,-168.80699578674717
8.312,0.9999908692958321,-169.020799276441
8.32,0.9999908785220937,-169.2344872275353
8.328,0.9999908879959365,-169.44806183773477
8.336,0.999990897733564,-169.66152530153914
8.344,0.9999909077510619,-169.87487981029966
8.352,0.9999909180643961,-170.08812755227706
8.36,0.9999909286894093,-170.30127071269814
8.368,0.9999909396418212,-170.51431147381354
8.376,0.9999909509372232,-170.72725201495462
8.384,0.9999909625910796,-170.94009451259123
8.392,0.9999909746187224,-171.15284114038857
8.4,0.9999909870353522,-171.36549406926486
8.408,0.9999909998560335,-171.57805546744856
8.416,0.9999910130956949,-171.79052750053586
8.424,0.9999910267691258,-172.00291233154792
8.432,0.9999910408909751,-172.21521212098844
8.44,0.9999910554757498,-172.4274290269009
8.448,0.9999910705378116,-172.63956520492627
8.456,0.9999910860913765,-172.85162280836013
8.464,0.999991102150513,-173.06360398821042
8.472,0.9999911187291398,-173.27551089325465
8.48,0.999991135841024,-173.4873456700977
8.488,0.9999911534997797,-173.69911046322892
8.496,0.9999911717188665,-173.91080741508
8.504,0.9999911905115881,-174.1224386660822
8.512,0.9999912098910901,-174.33400635472415
8.52,0.9999912298703582,-174.54551261760895
8.528,0.999991250462218,-174.75695958951232
8.536,0.9999912716793323,-174.96834940343948
8.544,0.9999912935341997,-175.17968419068325
8.552,0.999991316039154,-175.39096608088119
8.56,0.999991339206362,-175.60219720207354
8.568,0.999991363047822,-175.81337968076045
8.576,0.9999913875753634,-176.0245156419599
8.584,0.9999914128006446,-176.23560720926486
8.592,0.9999914387351515,-176.44665650490137
8.6,0.9999914653901966,-176.6576656497857
8.608,0.9999914927769181,-176.8686367635824
8.616,0.9999915209062779,-177.07957196476133
8.624,0.9999915497890608,-177.29047337065595
8.632,0.999991579435873,-177.50134309752033
8.64,0.9999916098571421,-177.71218326058732
8.648,0.9999916410631139,-177.92299597412566
8.656,0.9999916730638531,-178.13378335149807
8.664,0.9999917058692412,-178.3445475052186
8.672,0.9999917394889761,-178.55529054701057
8.68,0.999991773932571,-178.7660145878638
8.688,0.9999918092093522,-178.97672173809275
8.696,0.9999918453284597,-179.18741410739383
8.704,0.9999918822988452,-179.39809380490334
8.712,0.9999919201292717,-179.60876293925492
8.72,0.9999919588283125,-179.8194236186375
8.728,0.9999919984043494,179.96992204914739
8.736,0.9999920388655733,179.7592719566273
8.744,0.9999920802199823,179.5486239966019
8.752,0.9999921224753808,179.3379760620846
8.76,0.9999921656393795,179.12732604624534
8.768,0.999992209719394,178.91667184235237
8.776,0.9999922547226434,178.70601134371503
8.784,0.999992300656151,178.49534244362553
8.792,0.9999923475267424,178.28466303530158
8.8,0.9999923953410451,178.07397101182823
8.808,0.999992444105488,177.86326426610063
8.815999999999999,0.999992493826301,177.6525406907657
8.824,0.9999925445095125,177.44179817816467
8.832,0.9999925961609512,177.23103462027518
8.84,0.9999926487862442,177.0202479086537
8.847999999999999,0.9999927023908163,176.8094359343773
8.856,0.9999927569798898,176.59859658798604
8.864,0.9999928125584836,176.38772775942542
8.872,0.9999928691314134,176.17682733798807
8.879999999999999,0.9999929267032898,175.96589321225622
8.888,0.9999929852785187,175.75492327004363
8.896,0.9999930448613014,175.54391539833796
8.904,0.9999931054556324,175.3328674832429
8.911999999999999,0.9999931670652998,175.12177740991987
8.92,0.9999932296938867,174.91064306253057
8.928,0.9999932933447662,174.69946232417905
8.936,0.9999933580211061,174.48823307685367
8.943999999999999,0.9999934237258646,174.27695320136903
8.952,0.9999934904617928,174.06562057730827
8.96,0.9999935582314321,173.85423308296524
8.968,0.9999936270371148,173.6427885952863
8.975999999999999,0.999993696880964,173.43128498981238
8.984,0.9999937677648928,173.21972014062106
8.992,0.9999938396906044,173.00809192026884
9.0,0.9999939126595915,172.7963981997328
9.008,0.9999939866731358,172.5846368483527
9.016,0.9999940617323084,172.372805733773
9.024000000000001,0.9999941378379695,172.16090272188498
9.032,0.999994214990767,171.94892567676865
9.04,0.9999942931911386,171.7368724606345
9.048,0.9999943724393089,171.52474093376568
9.056000000000001,0.999994452735291,171.31252895446005
9.064,0.9999945340788858,171.10023437897198
9.072,0.9999946164696827,170.88785506145413
9.08,0.9999946999070574,170.67538885389965
9.088000000000001,0.9999947843901735,170.46283360608405
9.096,0.999994869917983,170.25018716550707
9.104,0.9999949564892243,170.03744737733456
9.112,0.9999950441024229,169.82461208434037
9.120000000000001,0.999995132755892,169.61167912684843
9.128,0.9999952224477313,169.39864634267445
9.136,0.9999953131758289,169.18551156706795
9.144,0.9999954049378587,168.9722726326539
9.152000000000001,0.9999954977312825,168.758927369375
9.16,0.9999955915533488,168.54547360443325
9.168,0.999995686401094,168.33190916223197
9.176,0.9999957822713416,168.11823186431744
9.184000000000001,0.9999958791607014,167.90443952932128
9.192,0.9999959770655722,167.69052997290189
9.2,0.9999960759821397,167.47650100768638
9.208,0.999996175906377,167.26235044321254
9.216000000000001,0.9999962768340455,167.04807608587083
9.224,0.999996378760694,166.83367573884615
9.232,0.9999964816816599,166.61914720205965
9.24,0.9999965855920689,166.40448827211065
9.248000000000001,0.9999966904868348,166.1896967422188
9.256,0.9999967963606607,165.97477040216575
9.264,0.9999969032080382,165.75970703823697
9.272,0.9999970110232484,165.54450443316395
9.280000000000001,0.9999971198003615,165.32916036606608
9.288,0.9999972295332381,165.11367261239255
9.296,0.9999973402155279,164.89803894386424
9.304,0.9999974518406715,164.68225712841576
9.312000000000001,0.9999975644019004,164.46632493013766
9.32,0.9999976778922368,164.25024010921823
9.328,0.999997792304494,164.03400042188554
9.336,0.9999979076312779,163.8176036203495
9.344,0.9999980238649853,163.6010474527442
9.352,0.9999981409978065,163.3843296630697
9.36,0.9999982590217246,163.1674479911344
9.368,0.9999983779285156,162.950400172497
9.376,0.9999984977097499,162.73318393840904
9.384,0.9999986183567922,162.51579701575665
9.392,0.9999987398608015,162.29823712700338
9.4,0.9999988622127326,162.080501990132
9.408,0.9999989854033361,161.86258931858728
9.416,0.9999991094231586,161.64449682121798
9.424,0.9999992342625441,161.42622220221975
9.432,0.9999993599116338,161.20776316107708
9.44,0.9999994863603674,160.98911739250644
9.448,0.9999996135984826,160.7702825863982
9.456,0.9999997416155173,160.55125642775997
9.464,0.999999870400809,160.33203659665867
9.472,0.9999999999434952,160.1126207681638
9.48,1.0,159.8930066122899
9.488,1.0,159.67319179393974
9.496,1.0000000000000002,159.45317397284703
9.504,1.0,159.23295080351966
9.512,1.0,159.01251993518272
