freq,mag,phase
6.0,0.9989720331993026,-46.47918310672635
6.015151616,0.9990900521576825,-47.08018826771726
6.030303232,0.9992482830978406,-47.6831248498183
6.045454336,0.9994388351399176,-48.28843566880737
6.060605952,0.999653596282907,-48.89645938152991
6.075757568,0.999883692682306,-49.5074508661054
6.090909184,1.000119245367423,-50.12153660537845
6.1060608,1.000350105258551,-50.73863109484953
6.121211904,1.0005664072320721,-51.3587007110767
6.13636352,1.0007591079297093,-51.98152122832264
6.151515136,1.0009196465185228,-52.60675959096713
6.166666752,1.0010418047971885,-53.233946290029806
6.181818368,1.001119750839829,-53.86263285446983
6.196969472,1.00115026453939,-54.49232962282009
6.212121088,1.0011319568903667,-55.12241363385507
6.227272704,1.0010657550971973,-55.75226997127053
6.24242432,1.0009540497612262,-56.38138185912346
6.257575936,1.0008017342146625,-57.00925434321583
6.27272704,1.0006150473620143,-57.63546776510173
6.287878656,1.0004020272798932,-58.259605827018774
6.303030272,1.0001717699235206,-58.8814267656632
6.318181888,0.9999337794273657,-59.5007922409546
6.333333504,0.9996982561071182,-60.11766205510494
6.348484608,0.9994754104695909,-60.73209613852002
6.363636224,0.9992744744984849,-61.3442983916153
6.37878784,0.9991042435530529,-61.954628294704136
6.393939456,0.9989720477413762,-62.56343651573724
6.409091072,0.9988835254760857,-63.1712394689561
6.424242176,0.9988424183271983,-63.778542971848076
6.439393792,0.9988506329097091,-64.38603033445058
6.454545408,0.9989081543061472,-64.99417091505346
6.469697024,0.9990123013509994,-65.60354447681284
6.48484864,0.9991587469005739,-66.2147643619208
6.499999744,0.9993412777420243,-66.82823281540996
6.51515136,0.9995522887844731,-67.44436392179512
6.530302976,0.9997829866305313,-68.0634051299259
6.545454592,1.0000231921406781,-68.68557852110995
6.560606208,1.000262971908458,-69.3109301174226
6.575757824,1.0004920564841304,-69.93936334920048
6.590908928,1.0007005081535434,-70.57071330908835
6.606060544,1.000879860257755,-71.20471028463724
6.62121216,1.001022081278823,-71.84091670175108
6.636363776,1.001121174731411,-72.47887940595514
6.651515392,1.0011728901064858,-73.11811275868318
6.666666496,1.0011750032740452,-73.7579556438822
6.681818112,1.0011272548073131,-74.39783168519482
6.696969728,1.00103185778937,-75.03725543123768
6.712121344,1.000892313729887,-75.67561205906962
6.72727296,1.000714739547051,-76.31238855050184
6.742424064,1.0005064807056288,-76.94721559619708
6.75757568,1.0002764395087747,-77.5798006733416
6.772727296,1.000034389483724,-78.20990047621711
6.787878912,0.9997903744442004,-78.8374219392127
6.803030528,0.9995549831829053,-79.46242270207898
6.818181632,0.9993382039374193,-80.08508015731665
6.833333248,0.9991490262659658,-80.70560221353598
6.848484864,0.9989960043167314,-81.32444200448082
6.86363648,0.9988853960365366,-81.94202881594092
6.878788096,0.9988221674335359,-82.55885656164531
6.8939392,0.9988089505289363,-83.17555930076463
6.909090816,0.9988465758049364,-83.79274194704303
6.924242432,0.9989334060073118,-84.41094189365124
6.939394048,0.9990658555632731,-85.0308073066465
6.954545664,0.9992383892465477,-85.65277867596942
6.969696768,0.9994436988919401,-86.27729319807284
6.984848384,0.9996730328688781,-86.90475213574437
7.0,0.9999167837903211,-87.53532762454249
7.015151616,1.0001646848530439,-88.1691690155096
7.030303232,1.000406083415823,-88.80622100703512
7.045454336,1.0006307194971678,-89.44636676145852
7.060605952,1.0008288875459803,-90.08936821439329
7.075757568,1.000992494646094,-90.7348670782626
7.090909184,1.0011143858127534,-91.38237194828386
7.1060608,1.0011894573450821,-92.0313629039035
7.121211904,1.001214060825553,-92.6813365537694
7.13636352,1.001187306621166,-93.33160841397441
7.151515136,1.001110314278904,-93.98162658220721
7.166666752,1.0009859814706834,-94.63079407518238
7.181818368,1.0008198014041816,-95.2785870446618
7.196969472,1.000618529615426,-95.92456063666906
7.212121088,1.0003907097331926,-96.56829359250602
7.227272704,1.000145824837901,-97.20963485066538
7.24242432,0.9998944269632996,-97.84828865771706
7.257575936,0.9996469785890922,-98.48436388135393
7.27272704,0.9994140197416722,-99.11787926934265
7.287878656,0.9992055702290704,-99.74913368083958
7.303030272,0.9990306581927535,-100.37841547502002
7.318181888,0.9988964839375339,-101.00620701748753
7.333333504,0.9988091419403775,-101.63296470612146
7.348484608,0.9987721752984975,-102.25930954575762
7.363636224,0.9987874279970135,-102.8858861338551
7.37878784,0.9988544431129476,-103.51323292807929
7.393939456,0.9989702463027829,-104.14201473719568
7.409091072,0.9991300946360211,-104.77272454055775
7.424242176,0.9993272199605024,-105.40590226230734
7.439393792,0.9995534647382412,-106.04193818050014
7.454545408,0.9997991593172305,-106.68108321840998
7.469697024,1.0000540119991956,-107.32355252307434
7.48484864,1.0003070231031508,-107.96935486633713
7.500000256,1.0005476520052081,-108.61840252390013
7.51515136,1.0007655360248526,-109.27054447546372
7.530302976,1.0009514991210662,-109.92540748779537
7.545454592,1.001097645400314,-110.58256941442627
7.560606208,1.001197651050173,-111.24153203331421
7.575757824,1.001247149681239,-111.90175580851775
7.590908928,1.001244041027849,-112.56259595728577
7.606060544,1.0011883296804769,-113.22344357391144
7.62121216,1.0010821392549887,-113.88367311146189
7.636363776,1.0009300490449689,-114.54275249062262
7.651515392,1.0007381194204292,-115.20011948700754
7.666666496,1.0005146269014114,-115.85537492560879
7.681818112,1.000268985866394,-116.50823037558605
7.696969728,1.0000112210147705,-117.15843878997131
7.712121344,0.9997526803424418,-117.80590766969331
7.72727296,0.9995039706719947,-118.45070977990416
7.742424064,0.9992758352990434,-119.09302442653332
7.75757568,0.9990778960508317,-119.73312344730155
7.772727296,0.998918751416449,-120.37142893224909
7.787878912,0.998805283120778,-121.00842261314092
7.803030528,0.9987422040719063,-121.64468824857688
7.818181632,0.9987324298343937,-122.28087901204752
7.833333248,0.9987765239774246,-122.91757994287107
7.848484864,0.9988726988705812,-123.55542029472885
7.86363648,0.9990170395440815,-124.19505386165243
7.878788096,0.9992033690542804,-124.83694367719995
7.8939392,0.9994239590672379,-125.48158954245277
7.909090816,0.9996694998653675,-126.12933744345335
7.924242432,0.9999296704243072,-126.78040149370285
7.939394048,1.0001934618860149,-127.43492529737827
7.954545664,1.0004496573575243,-128.09286002048705
7.969696768,1.0006874834640944,-128.75404906408005
7.984848384,1.0008967168704177,-129.41826475242397
8.0,1.001068588728169,-130.08505180674638
8.015151616,1.0011956490879843,-130.753960142133
8.030303232,1.0012724935070203,-131.42444340977198
8.045454336,1.0012956764619023,-132.09586845128896
8.060605952,1.0012642320028933,-132.76758636002995
8.075757568,1.0011792054861852,-133.43897048252788
8.090909184,1.0010442196855034,-134.1094161059981
8.1060608,1.0008647793485739,-134.77837629214437
8.121211904,1.0006483297998878,-135.44530142193966
8.13636352,1.0004039762314352,-136.10990012385636
8.151515136,1.000141958637218,-136.7718230330828
8.166666752,0.9998732813072732,-137.43095684682655
8.181818368,0.999609351301312,-138.08726161777037
8.196969472,0.9993613531662499,-138.7408837240561
8.212121088,0.9991398357919604,-139.39201427715554
8.227272704,0.998954305022996,-140.0410566196027
8.24242432,0.9988125698610008,-140.68849189042518
8.257575936,0.9987209690577742,-141.33486959085354
8.27272704,0.9986833094755488,-141.98075749303518
8.287878656,0.9987014555114658,-142.6268825847585
8.303030272,0.9987747154043984,-143.27384852807538
8.318181888,0.9989001510485466,-143.92233164246426
8.333333504,0.9990725072052381,-144.57289392167672
8.348484608,0.9992846706236653,-145.2260640588664
8.363636224,0.9995275653983217,-145.88224660899348
8.37878784,0.9997912007141575,-146.5417575731091
8.393939456,1.0000644238712109,-147.20482280921598
8.409091072,1.0003354698479359,-147.87142079311917
8.424242176,1.0005930760177726,-148.54149021978054
8.439393792,1.000826303143642,-149.21477374950248
8.454545408,1.0010252668041741,-149.89097527106102
8.469697024,1.0011813479604184,-150.5696455736803
8.48484864,1.0012879958240684,-151.25016785875138
8.499999744,1.0013405957154355,-151.93202638907113
8.51515136,1.001336706753916,-152.61453038420547
8.530302976,1.001276382593396,-153.29695972700878
8.545454592,1.0011620110169128,-153.97877173220337
8.560606208,1.0009983187502847,-154.65925475505344
8.575757824,1.000792114899181,-155.33792230683167
8.59090944,1.0005517723883528,-156.01428376768652
8.606060544,1.000287520317369,-156.688016331683
8.621211648,1.0000104125257736,-157.35887735982482
8.636363776,0.9997322118173593,-158.02679593500702
8.65151488,0.999464563469923,-158.69179467966603
8.666667008,0.9992187627954002,-159.3540816528177
8.681818112,0.9990054789842385,-160.013947451907
8.696969216,0.9988336718115346,-160.67187816843415
8.712121344,0.9987108629315675,-161.3283372297924
8.727272448,0.9986423201793644,-161.98397868603624
8.742424576,0.9986310345387734,-162.63946652865428
8.75757568,0.9986777111658744,-163.2954519133976
8.772726784,0.9987805060637773,-163.9526445771849
8.787878912,0.9989352752856954,-164.61166684144777
8.803030016,0.9991355595312579,-165.27314076773715
8.818182144,0.9993729542030044,-165.93749926144218
8.833333248,0.9996375363824033,-166.6051391293603
8.848484352,0.9999182836057202,-167.276325309876
8.86363648,1.0002031504577542,-167.95120186844036
8.878787584,1.0004803298320428,-168.62972728029848
8.893939712,1.000737854063937,-169.31175072160002
8.909090816,1.0009650680493145,-169.99696357977882
8.92424192,1.0011522139208797,-170.68497528454057
8.939394048,1.0012912803877265,-171.37524508074316
8.954545152,1.0013762598173384,-172.06716862087538
8.96969728,1.0014035128598473,-172.7601112146839
8.984848384,1.0013716378035817,-173.45341076516735
8.999999488,1.0012817961677738,-174.14629967077923
9.015151616,1.0011376522764788,-174.8381632192435
9.03030272,1.0009451709760393,-175.52840330328561
9.045454848,1.0007121511062202,-176.21644110052287
9.060605952,1.0004484391262038,-176.90189723137917
9.07575808,1.0001650634973336,-177.58444303603878
9.090909184,0.9998738105530235,-178.26394281317297
9.106060288,0.9995868919056771,-178.94031196829712
9.121212416,0.9993166953709464,-179.61370571455572
9.13636352,0.9990744863064401,179.71562340846214
9.151515648,0.9988707692514612,179.04729506149434
9.166666752,0.9987141112802876,178.38081482730232
9.181817856,0.9986114576707567,177.7155544675847
9.196969984,0.9985671807819847,177.05090314165284
9.212121088,0.9985832316318191,176.38611229147966
9.227273216,0.9986594390714795,175.72049026751483
9.24242432,0.9987925592304852,175.05331550207003
9.257575424,0.9989772243884925,174.3839560138345
9.272727552,0.9992054849951398,173.7118655603753
9.287878656,0.9994681091372623,173.03659880602945
9.303030784,0.9997540452795393,172.35773200088792
9.318181888,1.0000512951118228,171.6751158006988
9.333332992,1.0003471498497434,170.98867788611014
9.34848512,1.0006293488236027,170.29852584944052
9.363636224,1.0008859795500387,169.60481928030444
9.378788352,1.001105935805791,168.90802252014737
9.393939456,1.0012800586053952,168.20854928369002
9.40909056,1.0014006522303587,167.50701331268237
9.424242688,1.0014627971577181,166.80405071804358
9.439393792,1.0014635414822106,166.10040874727855
9.45454592,1.001402613641822,165.39675516905785
9.469697024,1.0012822522434102,164.6938445598959
9.484848128,1.0011074678604692,163.99233397148367
9.500000256,1.0008856212236856,163.29282423693545
9.51515136,1.0006255771682122,162.59583150428884
9.530303488,1.0003383815787685,161.90175921814415
9.545454592,1.0000358218144865,161.2108430730786
9.560605696,0.9997308811223252,160.5232042473908
9.575757824,0.9994361336976821,159.8388184634253
9.590908928,0.9991641554223544,159.15749745686418
9.606061056,0.9989266620783088,158.47891059673537
9.62121216,0.9987335757047664,157.80259069267365
9.636363264,0.9985934015733055,157.12795859691565
9.651515392,0.9985121557808,156.45436428412847
9.666666496,0.9984935022873456,155.78107926016847
9.681818624,0.9985384629784827,155.10738360396226
9.696969728,0.9986452937685802,154.43250763407897
9.712120832,0.9988097405684575,153.7557611138086
9.72727296,0.9990250317591208,153.0764780871644
9.742424064,0.9992821023786654,152.3941056008532
9.757576192,0.9995705098241108,151.70822863855633
9.772727296,0.9998780216228405,151.01852070813402
9.7878784,1.0001916537892341,150.32485628345532
9.803030528,1.0004982485604965,149.62723490566475
9.818181632,1.0007849407261764,148.9257869526072
9.83333376,1.0010396013682457,148.22084750594803
9.848484864,1.0012512093627366,147.5128331975461
9.863635968,1.0014110062760981,146.80232224479724
9.878788096,1.001512007521297,146.08994081485181
9.8939392,1.001549661841778,145.37641171639973
9.909091328,1.00152207834295,144.6624949095789
9.924242432,1.0014305883291,143.94897355669875
9.939393536,1.0012783522141127,143.23654939160517
9.954545664,1.0010718369282645,142.52589886275962
9.969696768,1.0008192940291438,141.81767270520604
9.984848896,1.0005313292919213,141.1122866946458
10.0,1.0002198204373278,140.41013693085497
10.015151104,0.9998978534410585,139.7114428818376
10.030303232,0.9995790233638622,139.01623351930024
10.045454336,0.999276558227297,138.3244298683237
10.060606464,0.9990034086074597,137.63573442439613
10.075757568,0.9987714972847521,136.9497959230157
10.090908672,0.9985903745677351,136.26602786532612
10.1060608,0.9984680201734771,135.58380737093785
10.121211904,0.9984098823904267,134.90239160064095
10.136364032,0.9984186913564108,134.22101714160397
10.151515136,0.998494185752085,133.53890661324596
10.16666624,0.998633669916079,132.8552759411495
10.181818368,0.9988313095396568,132.16937175327635
10.196969472,0.9990790427717061,131.48056722074554
10.2121216,0.9993663810852695,130.78833840990433
10.227272704,0.9996817027731801,130.0922761441371
10.242423808,1.000011590957914,129.39211900676963
10.257575936,1.0003421349599453,128.68777439848998
10.27272704,1.000659714588327,127.97933209357454
10.287879168,1.0009506284919856,127.26698503022867
10.303030272,1.001202615508755,126.55114489483205
10.318181376,1.0014051041618026,125.83232452980285
10.333333504,1.0015491523790894,125.11113285185928
10.348484608,1.0016286843234194,124.38833536628253
10.363636736,1.0016399335170654,123.66467462871096
10.37878784,1.001582360076133,122.94096043653136
10.393938944,1.0014578095931266,122.21800172890447
10.409091072,1.0012714209214995,121.49654527843998
10.424242176,1.001030880944857,120.77729740672666
10.439394304,1.0007457267280102,120.06085323170463
10.454545408,1.000428084246214,119.34764014669032
10.469696512,1.0000907884395276,118.63800844549672
10.48484864,0.9997483869857007,117.93211218112724
10.499999744,0.999415085284972,117.22992880048267
10.515151872,0.9991047993275007,116.53130786158918
10.530302976,0.9988310151138129,115.83587124457725
10.54545408,0.9986052693862788,115.14314748520623
10.560606208,0.9984372869932979,114.4525091026823
10.575757312,0.9983346807104504,113.76325612330218
10.59090944,0.9983016938871433,113.0745665877561
10.606060544,0.9983403580339867,112.38561747071516
10.621211648,0.9984491730307984,111.69556068436647
10.636363776,0.998623830327702,111.00358478536491
10.65151488,0.9988572999167071,110.30895287696296
10.666667008,0.9991398790165472,109.611002253105
10.681818112,0.9994599680264109,108.9092561349391
10.696969216,0.999804269531992,108.20329996061531
10.712121344,1.0001581935458255,107.49296407312788
10.727272448,1.000507001870023,106.77822142900641
10.742424576,1.000835909219076,106.05917941355818
10.75757568,1.001131065858813,105.33616486231897
10.772726784,1.0013799820738385,104.60964927821432
10.787878912,1.0015719679601887,103.880228965102
10.803030016,1.001698579764318,103.14863260683784
10.818182144,1.0017544091631905,102.41563195120735
10.833333248,1.0017367404186401,101.68209689651455
10.848484352,1.0016458576611238,100.94888349188173
10.86363648,1.0014852111888894,100.21682031511187
10.878787584,1.0012614218360953,99.48669212889818
10.893939712,1.0009834956894645,98.75923141940035
10.909090816,1.0006626842497068,98.03496839258472
10.92424192,1.0003124013269582,97.31438883266556
10.939394048,0.9999472250403468,96.59773859409997
10.954545152,0.9995824306918513,95.88510696663104
10.96969728,0.9992333338112243,95.17645678620677
10.984848384,0.9989148076286288,94.47150207928028
11.000000512,0.9986403735073301,93.76980564952548
11.015151616,0.9984218738697729,93.07080445983868
11.03030272,0.9982688313736175,92.37378139367279
11.045454848,0.9981880018832416,91.67791868513925
11.060605952,0.9981832673652538,90.98233301007382
11.07575808,0.9982551252523584,90.28614386621643
11.090909184,0.9984008738158742,89.58844715463901
11.106060288,0.9986147999617262,88.88836749640411
11.121212416,0.998888020967721,88.18517651618725
11.13636352,0.9992095495576165,87.47824358622206
11.151515648,0.999565884314713,86.76702893780272
11.166666752,0.9999422100114737,86.05122892782784
11.181817856,1.0003227852475098,85.330684767799
11.196969984,1.000691680894028,84.60543868141532
11.212121088,1.0010330890254253,83.87572286601213
11.227273216,1.0013329095537178,83.14191771891132
11.24242432,1.0015779998472458,82.4045877823954
11.257575424,1.0017579402739687,81.66445512387251
11.272727552,1.001864903256354,80.92229521690675
11.287878656,1.0018939731843346,80.1789931396699
11.303030784,1.0018435098684277,79.43547450895979
11.318181888,1.0017151678957101,78.69267994605595
11.333332992,1.0015140728767533,77.95149406867401
11.34848512,1.0012480399556865,77.21271288874611
11.363636224,1.0009280156448674,76.4770505671902
11.378788352,1.0005670556238067,75.74508928079399
11.393939456,1.0001800809513064,75.0172320287669
11.40909056,0.999783349793239,74.29372509149272
11.424242688,0.9993934328481011,73.57457515916326
11.439393792,0.9990268033360266,72.85962231860965
11.45454592,0.9986989368921484,72.148535356028
11.469697024,0.9984240608482146,71.44075678561289
11.484848128,0.9982141190793125,70.73563797792984
11.500000256,0.9980782140801737,70.0323559950154
11.51515136,0.9980225231517051,69.32994598027804
11.530303488,0.9980499672564397,68.627494026651
11.545454592,0.9981597990424262,67.92401300139117
11.560605696,0.998347817737582,67.2185174694254
11.575757824,0.9986065091033297,66.51015576174922
11.590908928,0.9989254312125648,65.79811308163477
11.606061056,0.9992913251312527,65.0817677875932
11.62121216,0.9996890432897373,64.3606218204935
11.636363264,1.0001020639502072,63.63442328030659
11.651515392,1.0005131248746517,62.90305591270801
11.666666496,1.000904826350844,62.1666257252784
11.681818624,1.001260627265996,61.42546743301982
11.696969728,1.0015653433317997,60.68009366593234
11.712120832,1.001805960660887,59.931163617525904
11.72727296,1.001972058454294,59.17947128719366
11.742424064,1.0020560060306738,58.425913868757746
11.757576192,1.0020541119977362,57.671520693851825
11.772727296,1.0019656995347508,56.917255277096146
11.7878784,1.0017939592060214,56.164158107901386
11.803030528,1.0015456134628322,55.41311393748078
11.818181632,1.0012306212270017,54.66500679105148
11.83333376,1.0008617442826575,53.92058433890472
11.848484864,1.0004540476167727,53.18035110360449
11.863635968,1.0000245770217149,52.4447309362198
11.878788096,0.999591175626204,51.713871686427545
11.8939392,0.9991720355885519,50.98772523250362
11.909091328,0.998784908895886,50.26606056563549
11.924242432,0.9984464551885545,49.54840438463328
11.939393536,0.9981711856727297,48.834113766980195
11.954545664,0.9979712073639403,48.12237111106331
11.969696768,0.9978554747296596,47.412254315787266
11.984848896,0.9978294517071533,46.70272305358754
12.0,0.9978947300040613,45.992695741568205
12.015151104,0.9980493008096145,45.281110025525436
12.030303232,0.9982870357646614,44.566913761923054
12.045454336,0.9985986087314441,43.84917378162618
12.060606464,0.9989711730299642,43.12711097166067
