freq,mag,phase
6.0,0.9999963721851558,-70.81431621486449
6.008,0.9999976349959984,-71.18003559633404
6.016,0.9999988415545311,-71.54510274384594
6.024,0.9999999931965418,-71.9095173348613
6.032,0.9999999999999999,-72.27327908297093
6.04,1.0,-72.63638773757492
6.048,0.9999999999999999,-72.99884308356138
6.056,0.9999999999999999,-73.36064494098392
6.064,1.0,-73.7217931647385
6.072,1.0,-74.0822876442393
6.08,0.9999999999999999,-74.44212830309402
6.088,1.0,-74.80131509877843
6.096,1.0,-75.15984802231043
6.104,1.0,-75.51772709792365
6.112,1.0,-75.87495238274059
6.12,1.0,-76.23152396644562
6.128,1.0,-76.58744197095744
6.136,0.9999999999999999,-76.94270655010176
6.144,1.0,-77.29731788928352
6.152,1.0,-77.65127620515936
6.16,0.9999999999999999,-78.00458174531006
6.168,0.9999999999999998,-78.35723478791306
6.176,1.0,-78.70923564141525
6.184,1.0,-79.06058464420593
6.192,1.0,-79.41128216429023
6.2,1.0,-79.7613285989628
6.208,1.0,-80.11072437448202
6.216,1.0,-80.4594699457446
6.224,0.9999999999999999,-80.80756579596105
6.232,1.0,-81.15501243633145
6.24,0.9999999999999999,-81.50181040572208
6.248,1.0,-81.84796027034284
6.256,1.0,-82.19346262342538
6.264,1.0,-82.538318084902
6.272,1.0,-82.88252730108587
6.28,0.9999999999999999,-83.22609094435165
6.288,0.9999999999999999,-83.56900971281752
6.296,1.0,-83.91128433002818
6.304,0.9999999999999999,-84.25291554463881
6.312,1.0,-84.59390413010046
6.32,1.0,-84.93425088434637
6.328,1.0,-85.27395662947974
6.336,1.0,-85.6130222114626
6.344,1.0,-85.95144849980622
6.352,1.0,-86.28923638726266
6.36,1.0,-86.62638678951801
6.368,0.9999999999999999,-86.96290064488672
6.376,1.0,-87.29877891400773
6.384,1.0,-87.63402257954205
6.392,1.0,-87.96863264587164
6.4,0.9999999999999999,-88.30261013880032
6.408,1.0,-88.63595610525583
6.416,1.0,-88.968671612994
6.424,1.0,-89.30075775030417
6.432,1.0,-89.63221562571663
6.44,1.0,-89.96304636771167
6.448,1.0,-90.29325112443043
6.456,1.0,-90.62283106338747
6.464,1.0,-90.95178737118529
6.472,1.0,-91.28012125323062
6.48,1.0,-91.60783393345248
6.4879999999999995,1.0,-91.93492665402228
6.496,1.0,-92.2614006750759
6.504,0.9999999999999998,-92.58725727443719
6.5120000000000005,0.9999999999999998,-92.91249774734432
6.52,1.0,-93.23712340617699
6.5280000000000005,1.0,-93.56113558018679
6.536,1.0,-93.88453561522842
6.5440000000000005,1.0,-94.20732487349399
6.552,1.0,-94.52950473324833
6.5600000000000005,1.0,-94.85107658856741
6.568,0.9999999999999999,-95.17204184907771
6.5760000000000005,0.9999999999999999,-95.49240193969874
6.584,0.9999999999999999,-95.81215830038661
6.592,0.9999999999999999,-96.13131238588072
6.6,0.9999999999999999,-96.44986566545163
6.608,0.9999999999999999,-96.76781962265166
6.616,0.9999999999999999,-97.08517575506735
6.624,0.9999999999999999,-97.40193557407417
6.632,0.9999999999999999,-97.71810060459322
6.64,1.0,-98.0336723848502
6.648,0.9999999999999999,-98.34865246613658
6.656,1.0,-98.66304241257271
6.664,0.9999999999999999,-98.97684380087327
6.672,1.0,-99.29005822011491
6.68,0.9999998020791632,-99.60268727150589
6.688,0.9999994088149421,-99.91473256815806
6.696,0.999999017387135,-100.2261957348609
6.704,0.9999986279981183,-100.53707840785783
6.712,0.9999982408432748,-100.84738223462462
6.72,0.9999978561111171,-101.15710887365002
6.728,0.9999974739834124,-101.4662599942185
6.736,0.9999970946353042,-101.77483727619534
6.744,0.9999967182354335,-102.08284240981367
6.752,0.9999963449460588,-102.3902770954638
6.76,0.9999959749231748,-102.69714304348484
6.768,0.999995608316631,-103.00344197395823
6.776,0.9999952452702461,-103.3091756165036
6.784,0.9999948859219246,-103.61434571007685
6.792,0.9999945304037704,-103.91895400277019
6.8,0.9999941788421991,-104.22300225161462
6.808,0.9999938313580504,-104.5264922223842
6.816,0.9999934880666973,-104.82942568940284
6.824,0.9999931490781554,-105.13180443535298
6.832,0.9999928144971916,-105.43363025108644
6.84,0.9999924844234297,-105.73490493543754
6.848,0.9999921589514558,-106.03563029503819
6.856,0.9999918381709235,-106.33580814413514
6.864,0.9999915221666554,-106.63544030440939
6.872,0.9999912110187459,-106.93452860479758
6.88,0.9999909048026612,-107.23307488131569
6.888,0.999990603589339,-107.53108097688457
6.896,0.9999903074452857,-107.8285487411577
6.904,0.9999900164326752,-108.12548003035103
6.912,0.999989730609442,-108.42187670707472
6.92,0.9999894500293771,-108.71774064016718
6.928,0.9999891747422222,-109.01307370453094
6.936,0.9999889047937596,-109.3078777809706
6.944,0.999988640225905,-109.60215475603287
6.952,0.9999883810767957,-109.89590652184857
6.96,0.9999881273808809,-110.18913497597659
6.968,0.9999878791690073,-110.48184202124992
6.976,0.9999876364685063,-110.77402956562358
6.984,0.9999873993032787,-111.06569952202464
6.992,0.9999871676938787,-111.356853808204
7.0,0.9999869416575975,-111.64749434659029
7.008,0.999986721208542,-111.9376230641456
7.016,0.9999865063577194,-112.2272418922232
7.024,0.9999862971131126,-112.51635276642715
7.032,0.9999860934797612,-112.80495762647372
7.04,0.9999858954598371,-113.09305841605479
7.048,0.9999857030527212,-113.38065708270317
7.056,0.999985516255077,-113.66775557765959
7.064,0.9999853350609265,-113.95435585574171
7.072,0.9999851594617202,-114.24045987521494
7.08,0.9999849894464117,-114.52606959766494
7.088,0.999984825001525,-114.81118698787216
7.096,0.9999846661112267,-115.09581401368791
7.104,0.9999845127573925,-115.3799526459125
7.112,0.9999843649196754,-115.6636048581748
7.12,0.9999842225755723,-115.94677262681397
7.128,0.9999840857004881,-116.22945793076252
7.136,0.9999839542678011,-116.51166275143142
7.144,0.9999838282489244,-116.79338907259672
7.152,0.9999837076133715,-117.07463888028796
7.16,0.9999835923288137,-117.3554141626782
7.168,0.9999834823611429,-117.6357169099759
7.176,0.9999833776745287,-117.91554911431822
7.184,0.999983278231479,-118.19491276966605
7.192,0.9999831839928957,-118.47380987170084
7.2,0.9999830949181309,-118.75224241772273
7.208,0.9999830109650435,-119.0302124065506
7.216,0.9999829320900523,-119.3077218384235
7.224,0.9999828582481902,-119.58477271490369
7.232,0.9999827893931569,-119.86136703878135
7.24,0.9999827254773698,-120.13750681398072
7.248,0.9999826664520155,-120.41319404546783
7.256,0.9999826122670993,-120.68843073915974
7.264,0.9999825628714943,-120.96321890183528
7.272,0.9999825182129894,-121.23756054104715
7.28,0.9999824782383363,-121.51145766503598
7.288,0.9999824428932964,-121.78491228264515
7.296,0.9999824121226862,-122.05792640323753
7.304,0.9999823858704211,-122.33050203661365
7.312,0.9999823640795604,-122.60264119293105
7.32,0.9999823466923498,-122.87434588262525
7.328,0.9999823336502638,-123.14561811633199
7.336,0.9999823248940458,-123.41645990481096
7.344,0.9999823203637518,-123.68687325887079
7.352,0.9999823199987863,-123.95686018929543
7.36,0.9999823237379442,-124.22642270677193
7.368,0.9999823315194482,-124.49556282181948
7.376,0.9999823432809857,-124.76428254471976
7.384,0.9999823589597465,-125.03258388544866
7.392,0.9999823784924583,-125.3004688536092
7.4,0.9999824018154216,-125.56793945836571
7.4079999999999995,0.9999824288645455,-125.83499770837939
7.416,0.9999824595753799,-126.10164561174517
7.4239999999999995,0.9999824938831503,-126.36788517592923
7.432,0.9999825317227883,-126.63371840770883
7.4399999999999995,0.9999825730289658,-126.89914731311205
7.448,0.9999826177361234,-127.16417389735999
7.4559999999999995,0.9999826657785033,-127.42880016480892
7.464,0.9999827170901764,-127.69302811889487
7.4719999999999995,0.9999827716050738,-127.95685976207805
7.48,0.999982829257014,-128.2202970957897
7.4879999999999995,0.9999828899797305,-128.48334212037886
7.496,0.9999829537068997,-128.74599683506148
7.504,0.9999830203721667,-129.0082632378693
7.5120000000000005,0.9999830899091721,-129.27014332560125
7.52,0.9999831622515762,-129.53163909377452
7.5280000000000005,0.9999832373330846,-129.79275253657795
7.536,0.9999833150874718,-130.05348564682546
7.5440000000000005,0.9999833954486048,-130.31384041591127
7.552,0.9999834783504671,-130.57381883376556
7.5600000000000005,0.9999835637271788,-130.8334228888119
7.568,0.9999836515130213,-131.09265456792457
7.5760000000000005,0.9999837416424561,-131.35151585638812
7.584,0.9999838340501472,-131.61000873785693
7.5920000000000005,0.9999839286709806,-131.86813519431635
7.6,0.9999840254400844,-132.12589720604444
7.6080000000000005,0.9999841242928468,-132.38329675157485
7.616,0.9999842251649368,-132.64033580766056
7.6240000000000006,0.9999843279923206,-132.8970163492387
7.632,0.9999844327112806,-133.15334034939585
7.640000000000001,0.9999845392584304,-133.4093097793349
7.648,0.999984647570735,-133.66492660834217
7.656000000000001,0.999984757585523,-133.9201928037558
7.664,0.9999848692405061,-134.17511033093493
7.672,0.9999849824737919,-134.42968115322967
7.68,0.9999850972238987,-134.68390723195193
7.688,0.9999852134297719,-134.93779052634707
7.696,0.9999853310307963,-135.19133299356656
7.704,0.99998544996681,-135.44453658864126
7.712,0.9999855701781177,-135.6974032644554
7.72,0.9999856916055029,-135.94993497172186
7.728,0.9999858141902406,-136.20213365895748
7.736,0.9999859378741089,-136.45400127246
7.744,0.9999860625994015,-136.70553975628494
7.752,0.999986188308936,-136.95675105222384
7.76,0.9999863149460685,-137.20763709978303
7.768,0.9999864424547003,-137.45819983616303
7.776,0.9999865707792899,-137.70844119623894
7.784,0.9999866998648621,-137.95836311254112
7.792,0.9999868296570167,-138.20796751523724
7.8,0.9999869601019377,-138.45725633211435
7.808,0.999987091146402,-138.706231488562
7.816,0.9999872227377875,-138.954894907556
7.824,0.99998735482408,-139.2032485096428
7.832,0.9999874873538818,-139.45129421292464
7.84,0.9999876202764184,-139.69903393304503
7.848,0.9999877535415453,-139.94646958317546
7.856,0.9999878870997541,-140.19360307400208
7.864,0.9999880209021794,-140.44043631371363
7.872,0.9999881549006044,-140.68697120798933
7.88,0.9999882890474663,-140.9332096599881
7.888,0.9999884232958615,-141.17915357033772
7.896,0.9999885575995512,-141.42480483712512
7.904,0.9999886919129655,-141.67016535588684
7.912,0.9999888261912078,-141.91523701960043
7.92,0.9999889603900595,-142.16002171867598
7.928,0.9999890944659834,-142.4045213409488
7.936,0.9999892283761277,-142.64873777167202
7.944,0.9999893620783288,-142.89267289351017
7.952,0.9999894955311152,-143.13632858653324
7.96,0.9999896286937092,-143.37970672821106
7.968,0.9999897615260307,-143.62280919340847
7.976,0.999989893988699,-143.86563785438074
7.984,0.9999900260430346,-144.10819458076978
7.992,0.9999901576510624,-144.35048123960058
8.0,0.9999902887755115,-144.59249969527846
8.008,0.9999904193798181,-144.8342518095863
8.016,0.9999905494281263,-145.07573944168308
8.024000000000001,0.9999906788852884,-145.31696444810177
8.032,0.9999908077168673,-145.5579286827487
8.04,0.9999909358891353,-145.79863399690296
8.048,0.9999910633690758,-146.03908223921636
8.056000000000001,0.9999911901243831,-146.27927525571332
8.064,0.9999913161234617,-146.5192148897921
8.072,0.9999914413354271,-146.75890298222592
8.08,0.9999915657301056,-146.9983413711645
8.088000000000001,0.9999916892780323,-147.23753189213608
8.096,0.9999918119504515,-147.47647637804994
8.104,0.9999919337193163,-147.71517665919936
8.112,0.9999920545572852,-147.95363456326484
8.120000000000001,0.9999921744377246,-148.1918519153176
8.128,0.9999922933347026,-148.42983053782396
8.136,0.9999924112229922,-148.66757225064958
8.144,0.9999925280780662,-148.9050788710644
8.152000000000001,0.9999926438760968,-149.14235221374767
8.16,0.9999927585939529,-149.37939409079365
8.168,0.9999928722091989,-149.61620631171763
8.176,0.999992984700091,-149.85279068346213
8.184000000000001,0.9999930960455757,-150.0891490104033
8.192,0.9999932062252874,-150.32528309435835
8.2,0.9999933152195444,-150.5611947345925
8.208,0.9999934230093473,-150.79688572782698
8.216000000000001,0.9999935295763752,-151.03235786824663
8.224,0.9999936349029828,-151.26761294750844
8.232,0.9999937389721975,-151.50265275475024
8.24,0.9999938417677156,-151.73747907659964
8.248000000000001,0.9999939432738988,-151.97209369718303
8.256,0.9999940434757709,-152.2064983981353
8.264,0.9999941423590136,-152.44069495860992
8.272,0.9999942399099632,-152.67468515528887
8.280000000000001,0.9999943361156066,-152.908470762393
8.288,0.9999944309635767,-153.1420535516929
8.296,0.9999945244421486,-153.37543529252008
8.304,0.9999946165402364,-153.60861775177798
8.312,0.9999947072473864,-153.84160269395358
8.32,0.9999947965537753,-154.07439188112943
8.328,0.9999948844502041,-154.30698707299558
8.336,0.9999949709280943,-154.53939002686198
8.344,0.9999950559794822,-154.771602497671
8.352,0.9999951395970156,-155.00362623801064
8.36,0.9999952217739473,-155.23546299812708
8.368,0.9999953025041317,-155.46711452593863
8.376,0.999995381782019,-155.69858256704882
8.384,0.9999954596026495,-155.9298688647606
8.392,0.9999955359616499,-156.16097516009023
8.4,0.9999956108552273,-156.3919031917816
8.408,0.9999956842801633,-156.62265469632064
8.416,0.9999957562338101,-156.85323140795032
8.424,0.9999958267140837,-157.08363505868525
8.432,0.9999958957194591,-157.31386737832725
8.44,0.9999959632489642,-157.5439300944802
8.448,0.9999960293021755,-157.77382493256624
8.456,0.9999960938792104,-158.00355361584096
8.464,0.9999961569807234,-158.23311786540975
8.472,0.9999962186078996,-158.46251940024388
8.48,0.9999962787624479,-158.69175993719682
8.488,0.9999963374465974,-158.92084119102077
8.496,0.999996394663089,-159.14976487438355
8.504,0.9999964504151712,-159.37853269788536
8.512,0.9999965047065926,-159.60714637007598
8.52,0.9999965575415977,-159.83560759747192
8.528,0.9999966089249196,-160.0639180845741
8.536,0.9999966588617736,-160.29207953388521
8.544,0.9999967073578521,-160.52009364592772
8.552,0.999996754419317,-160.74796211926153
8.56,0.9999968000527952,-160.97568665050252
8.568,0.9999968442653707,-161.20326893434034
8.576,0.9999968870645795,-161.43071066355728
8.584,0.9999969284584022,-161.65801352904643
8.592,0.9999969684552588,-161.88517921983075
8.6,0.9999970070640011,-162.1122094230817
8.608,0.9999970442939072,-162.3391058241385
8.616,0.999997080154675,-162.56587010652686
8.624,0.9999971146564149,-162.79250395197894
8.632,0.9999971478096444,-163.01900904045203
8.64,0.9999971796252807,-163.2453870501488
8.648,0.999997210114635,-163.4716396575364
8.656,0.9999972392894049,-163.69776853736684
8.664,0.999997267161669,-163.9237753626965
8.672,0.99999729374388,-164.14966180490646
8.68,0.9999973190488572,-164.37542953372255
8.688,0.9999973430897808,-164.60108021723588
8.696,0.9999973658801855,-164.82661552192295
8.704,0.9999973874339531,-165.0520371126666
8.712,0.9999974077653059,-165.2773466527762
8.72,0.9999974268888008,-165.50254580400895
8.728,0.9999974448193223,-165.72763622659025
8.736,0.9999974615720759,-165.95261957923512
8.744,0.9999974771625803,-166.1774975191689
8.752,0.9999974916066624,-166.40227170214885
8.76,0.9999975049204505,-166.626943782485
8.768,0.9999975171203658,-166.85151541306192
8.776,0.9999975282231182,-167.0759882453599
8.784,0.9999975382456974,-167.30036392947687
8.792,0.9999975472053676,-167.5246441141496
8.8,0.999997555119661,-167.748830446776
8.808,0.9999975620063694,-167.97292457343644
8.815999999999999,0.9999975678835398,-168.1969281389161
8.824,0.9999975727694661,-168.42084278672667
8.832,0.9999975766826825,-168.64467015912868
8.84,0.9999975796419581,-168.86841189715344
8.847999999999999,0.999997581666289,-169.09206964062557
8.856,0.9999975827748924,-169.3156450281852
8.864,0.9999975829871989,-169.5391396973102
8.872,0.9999975823228472,-169.76255528433882
8.879999999999999,0.9999975808016769,-169.98589342449242
8.888,0.9999975784437217,-170.20915575189775
8.896,0.999997575269203,-170.4323438996098
8.904,0.999997571298523,-170.65545949963445
8.911999999999999,0.9999975665522584,-170.87850418295153
8.92,0.9999975610511544,-171.10147957953745
8.928,0.9999975548161171,-171.3243873183882
8.936,0.9999975478682074,-171.54722902754227
8.943999999999999,0.9999975402286344,-171.77000633410398
8.952,0.9999975319187493,-171.99272086426635
8.96,0.9999975229600387,-172.21537424333425
8.968,0.9999975133741175,-172.4379680957477
8.975999999999999,0.999997503182723,-172.6605040451052
8.984,0.9999974924077092,-172.88298371418705
8.992,0.9999974810710381,-173.10540872497847
9.0,0.9999974691947767,-173.3277806986932
9.008,0.9999974568010871,-173.55010125579722
9.016,0.9999974439122225,-173.7723720160318
9.024000000000001,0.9999974305505194,-173.99459459843723
9.032,0.9999974167383934,-174.2167706213764
9.04,0.9999974024983298,-174.43890170255867
9.048,0.9999973878528803,-174.6609894590632
9.056000000000001,0.9999973728246545,-174.8830355073627
9.064,0.999997357436315,-175.1050414633473
9.072,0.999997341710571,-175.3270089423484
9.08,0.9999973256701714,-175.5489395591623
9.088000000000001,0.9999973093378998,-175.77083492807407
9.096,0.9999972927365673,-175.99269666288137
9.104,0.9999972758890071,-176.21452637691866
9.112,0.9999972588180676,-176.4363256830808
9.120000000000001,0.9999972415466075,-176.65809619384706
9.128,0.9999972240974888,-176.87983952130512
9.136,0.9999972064935718,-177.1015572771753
9.144,0.9999971887577073,-177.3232510728342
9.152000000000001,0.999997170912733,-177.5449225193391
9.16,0.999997152981466,-177.76657322745166
9.168,0.9999971349866976,-177.98820480766236
9.176,0.9999971169511868,-178.20981887021455
9.184000000000001,0.9999970988976551,-178.43141702512827
9.192,0.9999970808487807,-178.65300088222463
9.2,0.9999970628271926,-178.87457205115004
9.208,0.9999970448554643,-179.09613214140026
9.216000000000001,0.9999970269561091,-179.3176827623444
9.224,0.999997009151574,-179.53922552324934
9.232,0.9999969914642338,-179.7607620333039
9.24,0.9999969739163858,-179.98229390164303
9.248000000000001,0.9999969565302443,179.7961772626282
9.256,0.9999969393279353,179.5746498504101
9.264,0.9999969223314896,179.35312225258434
9.272,0.9999969055628394,179.1315928599895
9.280000000000001,0.9999968890438117,178.91006006339722
9.288,0.9999968727961226,178.68852225348775
9.296,0.9999968568413732,178.46697782082566
9.304,0.9999968412010428,178.24542515583576
9.312000000000001,0.9999968258964851,178.02386264877887
9.32,0.9999968109489212,177.80228868972776
9.328,0.9999967963794362,177.58070166854256
9.336,0.9999967822089731,177.3590999748469
9.344,0.9999967684583276,177.13748199800375
9.352,0.9999967551481433,176.91584612709096
9.36,0.9999967422989067,176.69419075087742
9.368,0.9999967299309414,176.47251425779862
9.376,0.9999967180644047,176.25081503593287
9.384,0.999996706719281,176.02909147297677
9.392,0.9999966959153777,175.80734195622145
9.4,0.9999966856723211,175.58556487252818
9.408,0.9999966760095493,175.3637586083047
9.416,0.9999966669463098,175.1419215494807
9.424,0.9999966585016541,174.92005208148422
9.432,0.9999966506944318,174.6981485892173
9.44,0.9999966435432877,174.47620945703233
9.448,0.9999966370666561,174.25423306870772
9.456,0.9999966312827564,174.03221780742436
9.464,0.9999966262095888,173.81016205574142
9.472,0.9999966218649295,173.58806419557268
9.48,0.999996618266327,173.36592260816246
9.488,0.9999966154310963,173.14373567406227
9.496,0.9999966133763164,172.92150177310626
9.504,0.9999966121188245,172.6992192843884
9.512,0.9999966116752118,172.47688658623795
9.52,0.9999966120618209,172.25450205619646
9.528,0.9999966132947389,172.03206407099358
9.536,0.9999966153897959,171.80957100652395
9.544,0.99999661836256,171.5870212378233
9.552,0.9999966222283323,171.36441313904518
9.56,0.9999966270021443,171.1417450834373
9.568,0.9999966326987527,170.91901544331836
9.576,0.9999966393326367,170.69622259005442
9.584,0.999996646917994,170.4733648940358
9.592,0.9999966554687353,170.25044072465366
9.6,0.9999966649984827,170.02744845027698
9.608,0.9999966755205658,169.8043864382291
9.616,0.9999966870480156,169.581253054765
9.624,0.9999966995935642,169.35804666504782
9.632,0.9999967131696389,169.1347656331264
9.64,0.9999967277883601,168.9114083219116
9.648,0.9999967434615362,168.68797309315443
9.656,0.9999967602006623,168.46445830742218
