freq,mag,phase
6.0,0.9996231887409179,119.24624644222415
6.002286592,0.999480249834532,119.09853201414425
6.004572672,0.9993709987730264,118.95268944481785
6.006859264,0.9993017275339859,118.80816012318763
6.009145344,0.9992771736360591,118.66434320750669
6.011431936,0.9992986249624833,118.52060143670504
6.013718016,0.9993647575936592,118.37628948290654
6.016004608,0.9994715638279886,118.23073715136668
6.018290688,0.9996122268805844,118.0834220904933
6.02057728,0.9997778395436616,117.93391014715873
6.022863872,0.9999579256108269,117.78190496270408
6.025149952,1.0001409979666687,117.62733290141678
6.027436544,1.0003153839318377,117.47018676152473
6.029722624,1.0004703472630625,117.31066639693319
6.032009216,1.0005956975936918,117.14914870399107
6.034295296,1.0006838696151399,116.98613349051679
6.036581888,1.0007290567028355,116.82216642676178
6.03886848,1.0007283190512042,116.65793820991676
6.04115456,1.0006818033852145,116.49407965239806
6.043441152,1.0005923275709991,116.33121482232178
6.045727232,1.0004657167781685,116.16996366255624
6.048013824,1.0003099131724125,116.01079299486967
6.050299904,1.0001344476358398,115.8540605467208
6.052586496,0.999950829536854,115.69996441664594
6.054872576,0.9997705097946596,115.54858033814948
6.057159168,0.9996048905576082,115.39973131614828
6.05944576,0.9994644146030853,115.25314173279723
6.06173184,0.9993583344232503,115.10837329838905
6.064018432,0.9992930150652828,114.96490225237184
6.066304512,0.9992728832453588,114.82209445062394
6.068591104,0.9992989489100256,114.6792869306744
6.070877184,0.9993698937999703,114.53578179881993
6.073163776,0.9994810906866713,114.39100936192362
6.075450368,0.9996253795977356,114.24442832338454
6.077736448,0.9997938956732312,114.09558872326382
6.08002304,0.9999758630318133,113.94423247606531
6.08230912,1.0001596314350336,113.79026243895457
6.084595712,1.0003336273076777,113.63372584854865
6.086881792,1.000486926959692,113.47483416871292
6.089168384,1.0006097514680112,113.31397414105453
6.091454464,1.0006941733356929,113.1516269405291
6.093741056,1.000735107529886,112.98842834934288
6.096027648,1.000729770569225,112.82498888494533
6.098313728,1.0006784684396401,112.6620122489563
6.10060032,1.00058447135762,112.50007897534249
6.1028864,1.000453723823393,112.33984673445755
6.105172992,1.0002944388332946,112.18174477451103
6.107459072,1.0001167562630193,112.02611015005466
6.109745664,0.9999317716792575,111.87317517015026
6.112032256,0.9997513573176564,111.72290890539729
6.114318336,0.9995868397400677,111.57518823512468
6.116604928,0.999448789566434,111.42968847988868
6.118891008,0.9993457315966267,111.28598746769228
6.1211776,0.999284584347726,111.14351246363246
6.12346368,0.9992688794388904,111.0016594375488
6.125750272,0.9992998676746189,110.85969729237303
6.128036352,0.999375474305073,110.71702907060923
6.130322944,0.9994911313304043,110.57299061006253
6.132609536,0.999639367863375,110.42704764878785
6.134895616,0.9998106694605569,110.27884230197614
6.137182208,0.9999944232317316,110.12806701363178
6.139468288,1.000178917944872,109.97464491976383
6.14175488,1.0003522563830614,109.81867046193366
6.14404096,1.0005037751113584,109.66035894418009
6.146327552,1.0006237035865218,109.50010956825679
6.148614144,1.0007044335875457,109.33846317086123
6.150900224,1.00074098295706,109.17594763767647
6.153186816,1.0007307737652764,109.01331562457968
6.155472896,1.0006746856831952,108.8511626946009
6.157759488,1.0005760214035795,108.69018544549189
6.160045568,1.0004411923967567,108.53092899469513
6.16233216,1.0002785701857873,108.37384457138107
6.16461824,1.000098541017239,108.21928510430361
6.166904832,0.9999123442656942,108.06743001372445
6.169191424,0.9997319504872998,107.91825622285468
6.171477504,0.9995687699496179,107.77163458067965
6.173764096,0.99943290941512,107.6271906601034
6.176050176,0.9993334404989416,107.48453602705317
6.178336768,0.9992763056828413,107.34302027887178
6.180622848,0.9992654694632528,107.20204744880435
6.18290944,0.9993013996619471,107.06093328169709
6.18519552,0.9993818644804787,106.91901447560419
6.187482112,0.9995019516845183,106.77563948474324
6.189768704,0.999653813844664,106.63032088394245
6.192054784,0.999828021389073,106.48270074418919
6.194341376,1.0000135004551303,106.33245731796522
6.196627456,1.0001984546661549,106.17957254187738
6.198914048,1.000371124694813,106.02410058053891
6.201200128,1.0005206751835212,105.86632485343753
6.20348672,1.0006376109158936,105.70666563547795
6.205773312,1.000714460972672,105.54561279434087
6.208059392,1.0007464985991155,105.38380427138557
6.210345984,1.0007313324134253,105.22188570113535
6.212632064,1.000670172542289,105.06057258980412
6.214918656,1.0005669900210397,104.90046306739285
6.217204736,1.0004278798081934,104.74216337197822
6.219491328,1.000262052262662,104.58607388647916
6.221777408,1.0000796605946898,104.43258117249877
6.224064,0.9998923816699871,104.28175854639322
6.226350592,0.9997121445073006,104.13367587969067
6.228636672,0.9995503347163295,103.98808867934349
6.230923264,0.9994172395454332,103.84467737985875
6.233209344,0.9993212205585753,103.70297805306308
6.235495936,0.9992684367769401,103.5624246876634
6.237782016,0.9992624141039643,103.4222835801371
6.240068608,0.9993033670512643,103.2819545523679
6.2423552,0.9993887989428011,103.14071743928072
6.24464128,0.9995132712056065,102.99798548936943
6.246927872,0.999669027828612,102.85325191801289
6.249213952,0.9998459838548625,102.7061511847633
6.251500544,1.0000330341524863,102.55640847881678
6.253786624,1.0002183971254304,102.40399662247924
6.256073216,1.0003903067646758,102.24899469667803
6.258359296,1.000537747180392,102.09172579899156
6.260645888,1.0006514911754925,101.93255990871215
6.26293248,1.0007242172031103,101.77210186330858
6.26521856,1.000751499741603,101.61092619093779
6.267505152,1.0007313978473689,101.44975425421943
6.269791232,1.0006652172999482,101.28921515645442
6.272077824,1.0005572728091183,101.12996728830984
6.274363904,1.00041412131321,100.97254780298326
6.276650496,1.0002448068230196,100.81743820908886
6.278937088,1.0000602824782276,100.66494065731915
6.281223168,0.9998719992397697,100.51515985943061
6.28350976,0.9996920832741306,100.36810063701289
6.28579584,0.9995317795988186,100.22353158799946
6.288082432,0.9994014088358756,100.08112898142109
6.290368512,0.9993090555820203,99.9403573652244
6.292655104,0.9992608708165281,99.80067424263423
6.294941184,0.9992597500211483,99.66134843295053
6.297227776,0.9993058572271086,99.52172711073173
6.299514368,0.9993962746523621,99.38116025528333
6.301800448,0.9995252167807637,99.23903135466627
6.30408704,0.9996845529083093,99.09481467365424
6.30637312,0.9998643821711242,98.94815721032694
6.308659712,1.0000530132171672,98.79886056175796
6.310945792,1.0002387029682942,98.64686547016018
6.313232384,1.0004094558658077,98.49232525516877
6.315518464,1.0005546697529175,98.33551499241875
6.317805056,1.0006650664601573,98.1768412252745
6.320091648,1.0007337272584635,98.01691090418439
6.322377728,1.0007560935576394,97.85635546854243
6.32466432,1.000730872385317,97.69583797925021
6.3269504,1.0006595709679293,97.53604060514405
6.329236992,1.000546806987905,97.37762015500199
6.331523072,1.0003995150613916,97.22109277843265
6.333809664,1.0002270059747176,97.0669294489647
6.336096256,1.0000403569287648,96.9154047254072
6.338382336,0.9998511934240778,96.76662357678937
6.340668928,0.9996717919513385,96.62055190363756
6.342955008,0.9995131609424875,96.4769703800358
6.3452416,0.999385695684227,96.33548080404802
6.34752768,0.9992973303419355,96.19561808431989
6.349814272,0.999253715717274,96.0567434707875
6.352100352,0.999257695395248,95.918197976667
6.354386944,0.9993089892774464,95.77925528703348
6.356673536,0.9994044394531556,95.63928898041283
6.358959616,0.9995378082963879,95.49769792179626
6.361246208,0.9997009843226582,95.35394789817667
6.363532288,0.999883436280556,95.20772349900025
6.36581888,1.000073501581759,95.05882152743139
6.36810496,1.0002591936167768,94.90718552473543
6.370391552,1.00042888986913,94.75303135479831
6.372678144,1.0005717663075009,94.59660666525343
6.374964224,1.000678599922761,94.43839390687147
6.377250816,1.0007428537453424,94.27898116017086
6.379536896,1.0007603550068611,94.11897405006266
6.381823488,1.0007298006868832,93.95912499808956
6.384109568,1.0006533799001502,93.80002854393665
6.38639616,1.0005356291715175,93.64240278962103
6.38868224,1.000384277612898,93.48673287206665
6.390968832,1.0002086609884628,93.33347623841095
6.393255424,1.0000200213312058,93.18286988092714
6.395541504,0.9998301205018125,93.03505186607077
6.397828096,0.9996511728347386,92.88995685110072
6.400114176,0.9994944423431943,92.74729595212136
6.402400768,0.9993700206091424,92.60674147182598
6.404686848,0.9992856642110912,92.46771945589857
6.40697344,0.9992469333524011,92.32961660531204
6.409260032,0.9992561259231335,92.19178081136823
6.411546112,0.9993127391850894,92.05348272626709
6.413832704,0.9994132124918499,91.91405804466105
6.416118784,0.9995511623836539,91.77292160368495
6.418405376,0.9997179916977734,91.6296203121066
6.420691456,0.9999029485857902,91.48375572382645
6.422978048,1.0000943923834866,91.33518602737836
6.425264128,1.0002801689098983,91.18389969734844
6.42755072,1.0004486101149654,91.03006661513804
6.429837312,1.0005887211433198,90.87401025826797
6.432123392,1.0006918763844426,90.71623813361612
6.434409984,1.0007516233753608,90.55727157184324
6.436696064,1.0007640521076513,90.3977972098046
6.438982656,1.0007282202713645,90.23854182332116
6.441268736,1.000646497177856,90.08014213920877
6.443555328,1.0005239878214967,89.92325833704012
6.44584192,1.0003684229761112,89.76840163702958
6.448128,1.0001897112579636,89.61602038624514
6.450414592,0.9999990916202232,89.4663291085265
6.452700672,0.9998085696368989,89.31942653637577
6.454987264,0.9996304861077577,89.17522632267159
6.457273344,0.9994758138042217,89.03351111840087
6.459559936,0.9993545967945124,88.89377151350499
6.461846016,0.9992744407066296,88.75557256802487
6.464132608,0.9992405208607305,88.61820720706007
6.4664192,0.999255067995234,88.48102381223015
6.46870528,0.9993170583321027,88.34330504644377
6.470991872,0.9994227087668414,88.20436806315661
6.473277952,0.9995652356674345,88.06365925860628
6.475564544,0.9997356211355491,87.92072713422624
6.477850624,0.9999230883522094,87.77519465866803
6.480137216,1.0001157664244282,87.62689157147288
6.482423296,1.000301322989122,87.4759028406598
6.484709888,1.0004681996358977,87.32237086592481
6.48699648,1.0006057104982182,87.16664021383245
6.48928256,1.0007051075720743,87.00921238638931
6.491569152,1.000760209902657,86.85067095912568
6.493855232,1.0007672800375096,86.69172421344891
6.496141824,1.0007260082836995,86.5330367482627
6.498427904,1.0006389964072724,86.37527639797294
6.500714496,1.000511627513763,86.21912643702015
6.503001088,1.0003520575576328,86.06504569840104
6.505287168,1.0001702816022127,85.91348955302456
6.50757376,0.9999777983105544,85.76466580453497
6.50985984,0.9997868763232622,85.6186368141632
6.512146432,0.999609524975426,85.47535377692941
6.514432512,0.9994571028842282,85.3344446000947
6.516719104,0.9993393489280049,85.1955534565614
6.519005184,0.9992635371734121,85.05810294630652
6.521291776,0.9992347806543652,84.92143389918351
6.523578368,0.9992546676538552,84.78484316803491
6.525864448,0.9993221551343132,84.64762614672068
6.52815104,0.9994329110129425,84.50914672075194
6.53043712,0.9995798603824839,84.36882375093818
6.532723712,0.9997538500175217,84.22618891402969
6.535009792,0.9999437333207989,84.08092562851883
6.537296384,1.0001374916317296,83.93289230861484
6.539582976,1.0003227829389398,83.78212790388379
6.541869056,1.0004879848417672,83.62881771918207
6.544155648,1.0006225805471958,83.4733826181317
6.546441728,1.0007179985424561,83.31627512422338
6.54872832,1.0007681989988477,83.15812551850651
6.5510144,1.000769841319783,82.99964445768306
6.553300992,1.0007231190252042,82.84148154613996
6.555587072,1.000630713295584,82.68435317291394
6.557873664,1.000498542803775,82.52886856309422
6.560160256,1.0003348415986915,82.37555319984503
6.562446336,1.000150116191108,82.22480273721504
6.564732928,0.9999559371152391,82.0768013513461
6.567019008,0.9997646655969112,81.93165316199291
6.5693056,0.9995884188916611,81.78915535808339
6.57159168,0.9994383820156059,81.64909240905666
6.573878272,0.99932412191026,81.51098997056306
6.576164864,0.9992529363543199,81.37419724113097
6.578450944,0.9992293477829446,81.23817628941771
6.580737536,0.9992548432414242,81.10214452057964
6.583023616,0.9993278997216399,80.9654083407068
6.585310208,0.9994438190482304,80.82732798944582
6.587596288,0.9995953511903808,80.68732667875419
6.58988288,0.9997727916639105,80.54495568325511
6.59216896,0.9999650304804576,80.3998768437898
6.594455552,1.0001596650388032,80.25205830062957
6.596742144,1.000344574240315,80.10147223229063
6.599028224,1.0005079234834309,79.94838597531002
6.601314816,1.0006393619079577,79.79315110002399
6.603600896,1.0007306020054594,79.63633814824958
6.605887488,1.0007758697188762,79.47854483799479
6.608173568,1.0007721170490502,79.32045967086862
6.61046016,1.0007196824463882,79.16280501451514
6.612746752,1.0006218617024207,79.00624943936023
6.615032832,1.0004848129115502,78.85144218660592
6.617319424,1.0003170727716,78.69884288947374
6.619605504,1.00012944768916,78.54883648030295
6.621892096,0.9999336499206767,78.40166265998815
6.624178176,0.9997422207719462,78.2572962201106
6.626464768,0.9995672247660284,78.11562000398034
6.628750848,0.9994197584166222,77.97631572027494
6.63103744,0.9993092729146548,77.83890817268974
6.633324032,0.9992427347672957,77.70280027684653
6.635610112,0.9992244798396033,77.56734711634873
6.637896704,0.9992556563545277,77.43182698727895
6.640182784,0.9993342296267655,77.29551996642792
6.642469376,0.9994554548956882,77.15777178982651
6.644755456,0.9996114372104772,77.01805312183748
6.647042048,0.9997922621873925,76.87588419699397
6.649328128,0.9999867346702155,76.73096439512862
6.65161472,1.0001822348797775,76.58325544822215
6.653901312,1.0003665091645555,76.43281746583588
6.656187392,1.0005278553089683,76.27987493314446
6.658473984,1.000656074462898,76.12485711073478
6.660760064,1.000742907301679,75.96827311209617
6.663046656,1.0007830161126543,75.810792197807
6.665332736,1.0007736975375057,75.65309471117267
6.667619328,1.0007156206309793,75.49591457915349
6.66990592,1.0006122863370985,75.33992862882214
6.672192,1.000470309631054,75.1857013811352
6.674478592,1.0002986953002864,75.0337962211465
6.676764672,1.0001082103160241,74.88454466456747
6.679051264,0.9999109596216001,74.73809648305452
6.681337344,0.999719471017689,74.59451672947543
6.683623936,0.9995457755172883,74.45359685820958
6.685910016,0.999401158957149,74.31500503888897
6.688196608,0.9992945407870018,74.17827988052642
6.6904832,0.9992328840716876,74.04278874360728
6.69276928,0.9992201085939453,73.90787509429528
6.695055872,0.9992569685436696,73.77279583065885
6.697341952,0.9993412982885219,73.63685685870486
6.699628544,0.9994676033842764,73.49940459086167
6.701914624,0.9996280516173794,73.35987123178543
6.704201216,0.9998122817758935,73.21785394485326
6.706487808,1.0000087755140985,73.07307125014324
6.708773888,1.000205013310092,72.92545607141417
6.71106048,1.0003885595092583,72.77510664106181
6.71334656,1.000547704605593,72.62226428668686
6.715633152,1.0006724495938406,72.4673893049727
6.717919232,1.000754889006186,72.31101599636479
6.720205824,1.0007896696073701,72.15380260991773
6.722491904,1.0007746649927165,71.9964641800952
6.724778496,1.0007108408322951,71.83969775752018
6.727065088,1.000601996383596,71.68420899983148
6.729351168,1.0004552275943885,71.53059223020907
6.73163776,1.0002797127125473,71.37933073135936
6.73392384,1.0000865217127928,71.23073988686916
6.736210432,0.9998878931239263,71.08504353972184
6.738496512,0.9996965522202855,70.94216715602178
6.740783104,0.9995244813361014,70.8019613192948
6.743069696,0.9993826900520894,70.66406549858917
6.745355776,0.9992802294143004,70.52797132504584
6.747642368,0.9992236273876481,70.39304527301421
6.749928448,0.9992164393297448,70.25860261424411
6.75221504,0.9992591612109356,70.1239309155556
6.75450112,0.9993491640177175,69.98827952362971
6.756787712,0.9994807387001564,69.8510605126154
6.759073792,0.9996455019111482,69.71169020039545
6.761360384,0.9998330117071407,69.56975715694695
6.763646976,1.0000315182159991,69.42504645647085
6.765933056,1.0002282643222493,69.27746719026146
6.768219648,1.0004108158880272,69.12715396017944
6.770505728,1.000567699960146,68.97439217468136
6.77279232,1.0006887526685986,68.81960865535453
6.7750784,1.0007665151799265,68.66340631816206
6.777364992,1.0007958534297212,68.50641938298685
6.779651584,1.000775146736879,68.34939225714415
6.781937664,1.0007053748693895,68.1930337386479
6.784224256,1.0005910123950907,68.03802149239642
6.786510336,1.0004394015530127,67.8849497363662
6.788796928,1.000260094679476,67.73429164132489
6.791083008,1.0000642931124573,67.58637582416614
6.7933696,0.9998645182866783,67.441339749082
6.79565568,0.9996733424582649,67.29915979878778
6.797942272,0.9995031271403915,67.15964732389669
6.800228864,0.9993644100275966,67.02238198214026
6.802514944,0.9992661905889065,66.88686087555011
6.804801536,0.9992146466577015,66.75242823598774
6.807087616,0.9992131712563427,66.61841900779963
6.809374208,0.9992618246541228,66.48408389959505
6.811660288,0.9993575625486495,66.34870468943552
6.81394688,0.9994943254333355,66.21165639832347
6.81623296,0.9996635421431057,66.07238868039131
6.818519552,0.9998542540820459,65.93049862064532
6.820806144,1.0000545706729445,65.78578946209653
6.823092224,1.0002516391680971,65.63820981195117
6.825378816,1.0004331261199741,65.4878844521673
6.827664896,1.0005873925470217,65.33511990999212
6.829951488,1.0007047683727368,65.18042824354929
6.832237568,1.0007776580819436,65.02433116548583
6.83452416,1.0008015761768807,64.86754802790098
6.836810752,1.0007748075500837,64.71080194611116
6.839096832,1.0006991869142998,64.55480775330491
6.841383424,1.0005793830291683,64.40023464509031
6.843669504,1.0004229431742022,64.24767353653044
6.845956096,1.0002397321171328,64.09759091450313
6.848242176,1.0000415161391556,63.95027419945562
6.850528768,0.9998406144970305,63.805894417960324
6.852814848,0.9996499188020016,63.66437631853509
6.85510144,0.9994815763783068,63.525464022773285
6.857388032,0.9993461603791074,63.38880405312268
6.859674112,0.9992523230699616,63.25380329975344
6.861960704,0.9992061814234419,63.11985359173465
6.864246784,0.999210481004072,62.98621357945348
6.866533376,0.999265125290849,62.85217517244976
6.868819456,0.9993666920687352,62.71698823977703
6.871106048,0.9995086744411601,62.58004837202446
6.87339264,0.9996820439393732,62.44083736536319
6.87567872,0.9998759353800679,62.29894052607255
6.877965312,1.0000779011839418,62.15419821149683
6.880251392,1.000275297837374,62.00654886204282
6.882537984,1.0004555487802052,61.85615711771009
6.884824064,1.0006070985206588,61.70339978032683
6.887110656,1.0007204219793715,61.54868953563548
6.889396736,1.0007884264915168,61.39268953184548
6.891683328,1.000806581136075,61.23606832416187
6.89396992,1.0007738821397616,61.07956403424025
6.896256,1.0006923613145666,60.92387479761365
6.898542592,1.000566984314984,60.76970094641847
6.900828672,1.000405788374445,60.61763640252816
6.903115264,1.0002189738871046,60.46808576860464
6.905401344,1.000018236736941,60.321372123470994
6.907687936,0.9998165791236175,60.17760098180427
6.909974528,0.9996264447382119,60.03666642534922
6.912260608,0.9994602051823164,59.89834969564305
6.9145472,0.9993281553903353,59.76223316758127
6.91683328,0.9992390586095355,59.62772351688736
6.919119872,0.9991982113411507,59.4941546695667
6.921405952,0.999208495204519,59.360852699471
6.923692544,0.999269205961999,59.22702686371188
6.925978624,0.999376572446525,59.091999616199075
6.928265216,0.9995237168674893,58.9551203828862
6.930551808,0.9997013379579127,58.81590316392415
6.932837888,0.9998982505231736,58.673944648047126
6.93512448,1.000101803545473,58.52909793971497
