freq,mag,phase
6.0,0.9999910476969145,65.60710618183163
6.008,0.9999920763351153,65.44645856378393
6.016,0.9999930804079092,65.28578133932778
6.024,0.9999940602304658,65.12507452904434
6.032,0.9999950161158084,64.96433815352046
6.04,0.9999959483748164,64.8035722333491
6.048,0.9999968573162298,64.64277678912977
6.056,0.9999977432466514,64.48195184146898
6.064,0.9999986064705498,64.32109741098074
6.072,0.9999994472902648,64.1602135182869
6.08,0.9999999999999999,63.99930018401773
6.088,1.0,63.83835742881227
6.096,1.0,63.677385273318855
6.104,0.9999999999999999,63.51638373819552
6.112,0.9999999999999999,63.35535284411048
6.12,1.0,63.19429261174253
6.128,1.0,63.03320306178156
6.136,0.9999999999999999,62.87208421492899
6.144,0.9999999999999998,62.71093609189816
6.152,1.0,62.54975871341484
6.16,1.0,62.38855210021767
6.168,1.0,62.22731627305863
6.176,1.0,62.06605125270342
6.184,1.0,61.90475705993194
6.192,1.0,61.74343371553879
6.2,1.0,61.58208124033367
6.208,1.0,61.420699655141775
6.216,1.0,61.259288980804406
6.224,1.0,61.09784923817923
6.232,1.0,60.93638044814082
6.24,1.0,60.77488263158104
6.248,1.0,60.61335580940971
6.256,1.0,60.45180000255472
6.264,0.9999999999999999,60.29021523196269
6.272,0.9999999999999999,60.12860151859938
6.28,0.9999999999999999,59.96695888345011
6.288,1.0,59.805287347520164
6.296,1.0,59.64358693183536
6.304,1.0,59.481857657442426
6.312,1.0,59.32009954540925
6.32,1.0,59.158312616825775
6.328,1.0,58.996496892804
6.336,0.9999999999999999,58.83465239447859
6.344,1.0,58.67277914300743
6.352,0.9999999999999999,58.510877159571855
6.36,1.0,58.34894646537726
6.368,0.9999999999999999,58.18698708165346
6.376,0.9999999999999999,58.024999029655056
6.384,0.9999999999999999,57.86298233066217
6.392,1.0,57.700937005980435
6.4,1.0,57.538863076941794
6.408,1.0,57.37676056490491
6.416,0.9999999999999999,57.2146294912553
6.424,1.0,57.052469877406146
6.432,1.0,56.8902817447985
6.44,1.0,56.72806511490186
6.448,1.0,56.565820009214455
6.456,1.0,56.40354644926377
6.464,1.0,56.24124445660703
6.472,1.0,56.07891405283151
6.48,0.9999999999999999,55.91655525955509
6.4879999999999995,0.9999999999999999,55.754168098426604
6.496,1.0,55.59175259112625
6.504,1.0,55.42930875936616
6.5120000000000005,0.9999999999999999,55.26683662489066
6.52,1.0,55.104336209476905
6.5280000000000005,1.0,54.941807534934995
6.536,0.9999999999999999,54.77925062310876
6.5440000000000005,1.0,54.61666549587597
6.552,0.9999999999999999,54.45405217514887
6.5600000000000005,1.0,54.291410682874364
6.568,1.0,54.12874104103487
6.5760000000000005,1.0,53.966043271648346
6.584,1.0,53.80331739676904
6.592,0.9999999999999998,53.640563438487526
6.6,1.0,53.47778141893163
6.608,0.9999999999999999,53.314971360266256
6.616,1.0,53.152133284694465
6.624,0.9999999999999999,52.98926721445731
6.632,0.9999999999999999,52.82637317183465
6.64,0.9999999999999999,52.66345117914544
6.648,0.9999999999999999,52.50050125874802
6.656,1.0,52.337523433040765
6.664,1.0,52.174517724462376
6.672,0.9999999999999999,52.011484155492305
6.68,0.9999999999999999,51.848422748651174
6.688,1.0,51.68533352650126
6.696,1.0000000000000002,51.52221651164681
6.704,1.0,51.3590717267345
6.712,0.9999999999999998,51.19589919445385
6.72,1.0,51.032698937537695
6.728,1.0000000000000002,50.869470978762465
6.736,0.9999999999999998,50.706215340948724
6.744,0.9999999999999999,50.54293204696145
6.752,1.0,50.379621119710635
6.76,1.0,50.21628258215154
6.768,1.0,50.05291645728511
6.776,1.0,49.88952276815848
6.784,1.0,49.72610153786538
6.792,1.0,49.56265278954623
6.8,1.0,49.39917654638905
6.808,1.0,49.23567283162959
6.816,1.0,49.072141668551644
6.824,1.0,48.908583080487674
6.832,1.0,48.744997090819034
6.84,1.0000000000000002,48.58138372297647
6.848,1.0,48.41774300044055
6.856,0.9999999999999998,48.254074946741845
6.864,1.0,48.09037958546173
6.872,0.9999999999999999,47.92665694023224
6.88,0.9999999999999999,47.76290703473709
6.888,1.0,47.59912989271153
6.896,1.0,47.43532553794295
6.904,1.0,47.271493994271516
6.912,0.9999999999999999,47.10763528559004
6.92,1.0,46.94374943584485
6.928,1.0,46.779836469035935
6.936,1.0,46.61589640921735
6.944,0.9999999999999999,46.45192928049772
6.952,1.0,46.28793510704051
6.96,1.0,46.123913913064534
6.968,1.0,45.95986572284416
6.976,0.9999999999999999,45.79579056070984
6.984,1.0,45.63168845104855
6.992,0.9999999999999999,45.4675594183039
7.0,1.0,45.30340348697685
7.008,0.9999999999999999,45.13922068162588
7.016,1.0,44.97501102686745
7.024,1.0,44.81077454737634
7.032,1.0,44.64651126788601
7.04,1.0,44.48222121318906
7.048,1.0,44.31790440813758
7.056,1.0,44.15356087764343
7.064,1.0,43.9891906466788
7.072,1.0,43.824793740276334
7.08,0.9999999999999999,43.660370183529686
7.088,1.0,43.49592000159397
7.096,0.9999999999999999,43.33144321968585
7.104,1.0,43.166939863084124
7.112,1.0,43.002409957129984
7.12,1.0,42.83785352722751
7.128,1.0,42.673270598843914
7.136,0.9999999999999999,42.50866119750987
7.144,1.0,42.34402534882012
7.152,1.0,42.1793630784335
7.16,0.9999999999999999,42.0146744120736
7.168,1.0,41.84995937552886
7.176,1.0,41.685217994653186
7.184,1.0,41.5204502953661
7.192,1.0,41.35565630365321
7.2,1.0,41.19083604556655
7.208,1.0,41.02598954722491
7.216,0.9999999999999999,40.86111683481409
7.224,1.0,40.69621793458757
7.232,1.0,40.531292872866445
7.24,0.9999999999999999,40.366341676040115
7.248,1.0,40.201364370566345
7.256,1.0,40.03636098297198
7.264,1.0,39.87133153985284
7.272,1.0,39.7062760678745
7.28,1.0,39.54119459377222
7.288,0.9999999999999999,39.376087144351686
7.296,1.0,39.21095374648904
7.304,1.0,39.045794427131426
7.312,1.0,38.88060921329712
7.32,0.9999999999999999,38.71539813207613
7.328,1.0,38.55016121063026
7.336,1.0,38.384898476193655
7.344,0.9999998541079477,38.21960995607305
7.352,0.9999996614293927,38.05429567764807
7.36,0.9999994709416805,37.888955668371594
7.368,0.9999992826776906,37.723589955770095
7.376,0.9999990966692524,37.55819856744397
7.384,0.9999989129471548,37.39278153106782
7.392,0.9999987315411536,37.227338874390824
7.4,0.9999985524799813,37.06187062523705
7.4079999999999995,0.9999983757913545,36.89637681150581
7.416,0.9999982015019843,36.730857461171816
7.4239999999999995,0.9999980296375837,36.5653126022858
7.432,0.9999978602228762,36.39974226297447
7.4399999999999995,0.9999976932816064,36.234146471441214
7.448,0.9999975288365468,36.068525255966065
7.4559999999999995,0.9999973669095066,35.902878644906274
7.464,0.9999972075213422,35.73720666669638
7.4719999999999995,0.999997050691964,35.57150934984884
7.48,0.9999968964403465,35.40578672295399
7.4879999999999995,0.9999967447845365,35.24003881468066
7.496,0.9999965957416618,35.07426565377618
7.504,0.9999964493279396,34.90846726906702
7.5120000000000005,0.9999963055586872,34.74264368945877
7.52,0.9999961644483278,34.576794943936726
7.5280000000000005,0.9999960260104023,34.41092106156591
7.536,0.9999958902575757,34.24502207149169
7.5440000000000005,0.9999957572016468,34.07909800293974
7.552,0.9999956268535577,33.91314888521665
7.5600000000000005,0.9999954992234013,33.74717474770993
7.568,0.999995374320431,33.58117561988862
7.5760000000000005,0.9999952521530696,33.415151531303245
7.584,0.9999951327289169,33.2491025115864
7.5920000000000005,0.9999950160547597,33.08302859045279
7.6,0.9999949021365804,32.916929797699794
7.6080000000000005,0.9999947909795649,32.75080616320745
7.616,0.9999946825881127,32.584657716939006
7.6240000000000006,0.9999945769658449,32.418484488940976
7.632,0.9999944741156126,32.25228650934366
7.640000000000001,0.9999943740395069,32.086063808361146
7.648,0.9999942767388663,31.91981641629189
7.656000000000001,0.9999941822142866,31.753544363518706
7.664,0.9999940904656293,31.58724768050933
7.672,0.9999940014920294,31.42092639781639
7.68,0.9999939152919061,31.254580546077932
7.688,0.9999938318629695,31.088210156017546
7.696,0.9999937512022316,30.921815258444692
7.704,0.999993673306012,30.755395884254995
7.712,0.9999935981699494,30.588952064430394
7.72,0.9999935257890099,30.422483830039578
7.728,0.999993456157494,30.255991212238072
7.736,0.9999933892690467,30.089474242268636
7.744,0.9999933251166659,29.92293295146147
7.752,0.9999932636927122,29.75636737123446
7.76,0.9999932049889153,29.58977753309347
7.768,0.999993148996384,29.423163468632552
7.776,0.9999930957056152,29.256525209534253
7.784,0.9999930451065021,29.08986278756982
7.792,0.9999929971883428,28.923176234599477
7.8,0.999992951939849,28.756465582572673
7.808,0.9999929093491542,28.589730863528324
7.816,0.9999928694038239,28.422972109595015
7.824,0.9999928320908622,28.25618935299135
7.832,0.999992797396721,28.08938262602609
7.84,0.9999927653073095,27.922551961098453
7.848,0.9999927358080017,27.75569739069831
7.856,0.9999927088836463,27.58881894740646
7.864,0.9999926845185728,27.42191666389484
7.872,0.9999926626966024,27.254990572926772
7.88,0.9999926434010555,27.08804070735721
7.888,0.9999926266147605,26.92106710013291
7.896,0.9999926123200616,26.75406978429273
7.904,0.9999926004988285,26.587048792967824
7.912,0.9999925911324634,26.420004159381847
7.92,0.9999925842019107,26.25293591685122
7.928,0.9999925796876649,26.085844098785326
7.936,0.9999925775697781,25.918728738686724
7.944,0.9999925778278702,25.751589870151392
7.952,0.9999925804411364,25.584427526868915
7.96,0.9999925853883547,25.417241742622714
7.968,0.9999925926478954,25.25003255129028
7.976,0.999992602197729,25.082799986843305
7.984,0.9999926140154344,24.915544083348017
7.992,0.9999926280782072,24.748264874965262
8.0,0.9999926443628683,24.580962395950785
8.008,0.9999926628458716,24.41363668065543
8.016,0.9999926835033122,24.24628776352525
8.024000000000001,0.9999927063109353,24.078915679101875
8.032,0.9999927312441433,23.9115204620226
8.04,0.9999927582780053,23.74410214702054
8.048,0.9999927873872635,23.576660768924874
8.056000000000001,0.9999928185463427,23.409196362661113
8.064,0.9999928517293579,23.24170896325123
8.072,0.9999928869101226,23.074198605813756
8.08,0.9999929240621557,22.90666532556405
8.088000000000001,0.999992963158691,22.739109157814553
8.096,0.9999930041726843,22.57153013797493
8.104,0.999993047076822,22.403928301552103
8.112,0.9999930918435281,22.23630368415058
8.120000000000001,0.9999931384449725,22.068656321472666
8.128,0.9999931868530793,21.900986249318578
8.136,0.9999932370395337,21.733293503586538
8.144,0.9999932889757918,21.565578120272995
8.152000000000001,0.9999933426330846,21.397840135472947
8.16,0.9999933979824303,21.23007958537992
8.168,0.999993454994639,21.062296506286152
8.176,0.9999935136403212,20.894490934582805
8.184000000000001,0.9999935738898956,20.72666290676016
8.192,0.9999936357135968,20.55881245940777
8.2,0.9999936990814824,20.390939629214483
8.208,0.9999937639634411,20.22304445296873
8.216000000000001,0.9999938303292003,20.055126967558667
8.224,0.9999938981483331,19.887187209972364
8.232,0.9999939673902664,19.71922521729778
8.24,0.9999940380242875,19.551241026723037
8.248000000000001,0.9999941100195529,19.383234675536627
8.256,0.9999941833450936,19.2152062011275
8.264,0.9999942579698244,19.047155640985093
8.272,0.9999943338625511,18.879083032699562
8.280000000000001,0.9999944109919758,18.710988413962006
8.288,0.9999944893267066,18.542871822564525
8.296,0.9999945688352633,18.37473329640023
8.304,0.9999946494860844,18.206572873463546
8.312,0.9999947312475365,18.038390591850337
8.32,0.999994814087918,17.87018648975787
8.328,0.9999948979754686,17.701960605485187
8.336,0.9999949828783761,17.53371297743293
8.344,0.9999950687647822,17.365443644103774
8.352,0.9999951556027902,17.197152644102246
8.36,0.9999952433604727,17.028840016135113
8.368,0.9999953320058765,16.86050579901126
8.376,0.9999954215070318,16.692150031642033
8.384,0.999995511831957,16.523772753041058
8.392,0.9999956029486663,16.35537400232469
8.4,0.9999956948251768,16.186953818711814
8.408,0.9999957874295149,16.01851224152417
8.416,0.9999958807297219,15.850049310186266
8.424,0.999995974693862,15.681565064225689
8.432,0.999996069290029,15.513059543272938
8.44,0.999996164486351,15.34453278706183
8.448,0.9999962602509986,15.175984835429258
8.456,0.9999963565521911,15.007415728315607
8.464,0.9999964533582018,14.838825505764532
8.472,0.9999965506373655,14.670214207923333
8.48,0.9999966483580842,14.501581875042765
8.488,0.9999967464888336,14.33292854747739
8.496,0.9999968449981694,14.164254265685365
8.504,0.9999969438547329,13.995559070228822
8.512,0.9999970430272577,13.826843001773643
8.52,0.9999971424845755,13.658106101089825
8.528,0.9999972421956221,13.489348409051251
8.536,0.999997342129444,13.320569966636045
8.544,0.9999974422552029,13.151770814926367
8.552,0.9999975425421829,12.982950995108746
8.56,0.9999976429597958,12.81411054847385
8.568,0.9999977434775873,12.64524951641684
8.576,0.9999978440652421,12.476367940437127
8.584,0.9999979446925898,12.307465862138729
8.592,0.9999980453296107,12.13854332323001
8.6,0.9999981459464421,11.96960036552404
8.608,0.9999982465133814,11.800637030938326
8.616,0.9999983470008947,11.631653361495177
8.624,0.9999984473796198,11.462649399321412
8.632,0.9999985476203739,11.293625186648727
8.64,0.9999986476941557,11.124580765813416
8.648,0.9999987475721545,10.9555161792567
8.656,0.9999988472257518,10.786431469524477
8.664,0.9999989466265293,10.617326679267636
8.672,0.9999990457462726,10.44820185124177
8.68,0.9999991445569765,10.279057028307525
8.688,0.9999992430308503,10.1098922534303
8.696,0.9999993411403217,9.940707569680587
8.704,0.999999438858044,9.771503020233656
8.712,0.9999995361568983,9.602278648369888
8.72,0.99999963301,9.43303449747448
8.728,0.999999729390703,9.263770611037767
8.736,0.9999998252726046,9.094487032654897
8.744,0.9999999206295493,8.925183806026162
8.752,1.0,8.755860974956676
8.76,1.0,8.586518583356696
8.768,1.0,8.41715667524128
8.776,0.9999999999999999,8.247775294730635
8.784,1.0,8.078374486049745
8.792,1.0,7.908954293528699
8.8,1.0,7.739514761602358
8.808,0.9999999999999999,7.570055934810654
8.815999999999999,1.0,7.40057785779827
8.824,0.9999999999999999,7.231080575314768
8.832,0.9999999999999999,7.061564132214616
8.84,0.9999999999999999,6.892028573457088
8.847999999999999,1.0,6.722473944106157
8.856,0.9999999999999999,6.552900289330534
8.864,1.0,6.383307654403712
8.872,0.9999999999999999,6.2136960847038365
8.879999999999999,1.0,6.044065625713604
8.888,1.0,5.874416323020273
8.896,0.9999999999999999,5.704748222315711
8.904,0.9999999999999999,5.535061369396247
8.911999999999999,0.9999999999999999,5.3653558101625585
8.92,0.9999999999999998,5.195631590619678
8.928,0.9999999999999999,5.025888756877013
8.936,0.9999999999999999,4.856127355148209
8.943999999999999,0.9999999999999999,4.68634743175101
8.952,1.0,4.516549033107251
8.96,0.9999999999999998,4.346732205742881
8.968,0.9999999999999999,4.176896996287798
8.975999999999999,1.0,4.007043451475708
8.984,1.0,3.8371716181441133
8.992,0.9999999999999999,3.667281543234299
9.0,1.0,3.497373273791183
9.008,1.0,3.3274468569631463
9.016,1.0,3.1575023400020075
9.024000000000001,1.0,2.9875397702630186
9.032,1.0,2.8175591952046815
9.04,1.0,2.647560662388571
9.048,0.9999999999999999,2.4775442194793023
9.056000000000001,1.0,2.307509914244516
9.064,0.9999999999999999,2.1374577945546718
9.072,1.0,1.9673879083828638
9.08,0.9999999999999999,1.7973003038047939
9.088000000000001,1.0,1.627195028998706
9.096,0.9999999999999999,1.4570721322452043
9.104,0.9999999999999999,1.2869316619270381
9.112,0.9999999999999999,1.116773666529064
9.120000000000001,0.9999999999999999,0.9465981946381671
9.128,1.0,0.7764052949430739
9.136,1.0,0.6061950162341209
9.144,1.0,0.4359674074031902
9.152000000000001,1.0,0.26572251744365055
9.16,1.0,0.09546039545011402
9.168,0.9999999999999999,-0.07481890938177292
9.176,1.0,-0.24511534775541602
9.184000000000001,1.0,-0.4154288702733603
9.192,0.9999999999999999,-0.585759427437517
9.2,0.9999999999999999,-0.7561069696494219
9.208,1.0,-0.9264714472103097
9.216000000000001,1.0,-1.0968528103212156
9.224,1.0,-1.2672510090832458
9.232,0.9999999999999999,-1.4376659934977838
9.24,1.0,-1.6080977134666525
9.248000000000001,1.0,-1.7785461187921832
9.256,0.9999999999999999,-1.9490111591775083
9.264,0.9999999999999999,-2.1194927842268116
9.272,1.0,-2.2899909434454435
9.280000000000001,0.9999999999999999,-2.4605055862400635
9.288,0.9999999999999999,-2.631036661918909
9.296,1.0,-2.8015841196920697
9.304,0.9999999999999999,-2.9721479086716367
9.312000000000001,1.0,-3.142727977871827
9.32,0.9999999999999999,-3.313324276209283
9.328,0.9999999999999999,-3.4839367525033675
9.336,1.0,-3.6545653554763082
9.344,1.0,-3.825210033753317
9.352,0.9999999999999998,-3.995870735863084
9.36,0.9999999999999999,-4.166547410237702
9.368,1.0,-4.337240005213228
9.376,1.0,-4.507948469029596
9.384,1.0,-4.678672749831188
9.392,1.0,-4.849412795666763
9.4,1.0,-5.02016855449003
9.408,0.9999999999999999,-5.19093997415959
9.416,1.0,-5.361727002439504
9.424,1.0,-5.532529586999253
9.432,0.9999999999999998,-5.703347675414306
9.44,0.9999999999999998,-5.8741812151661
9.448,1.0,-6.045030153642603
9.456,1.0,-6.215894438138316
9.464,1.0,-6.386774015854822
9.472,1.0,-6.557668833900805
9.48,1.0,-6.728578839292623
9.488,0.9999999999999999,-6.899503978954322
9.496,1.0,-7.070444199718208
9.504,0.9999999999999999,-7.241399448324872
9.512,0.9999999999999999,-7.412369671423785
9.52,1.0,-7.583354815573319
9.528,1.0,-7.754354827241363
9.536,0.9999999999999999,-7.925369652805313
9.544,1.0,-8.096399238552749
9.552,1.0,-8.2674435306814
9.56,0.9999999999999999,-8.438502475299833
9.568,1.0,-8.609576018427447
9.576,1.0,-8.78066410599512
9.584,1.0,-8.951766683845282
9.592,1.0,-9.122883697732522
9.6,0.9999999999999999,-9.294015093323654
9.608,1.0,-9.465160816198399
9.616,0.9999999999999999,-9.636320811849394
9.624,0.9999999999999999,-9.807495025682911
9.632,1.0,-9.978683403018874
9.64,0.9999999999999999,-10.149885889091586
9.648,0.9999999999999999,-10.321102429049745
9.656,1.0,-10.49233296795719
9.664,1.0,-10.663577450792921
9.672,1.0,-10.83483582245185
9.68,0.9999999999999999,-11.006108027744855
9.688,0.9999999999999999,-11.177394011399489
9.696,1.0,-11.348693718060087
9.704,1.0,-11.52000709228846
9.712,1.0,-11.691334078564049
9.72,1.0,-11.862674621284569
9.728,0.9999999999999999,-12.034028664766202
9.736,1.0,-12.205396153244264
9.744,0.9999999999999999,-12.376777030873386
9.752,1.0,-12.548171241728204
9.76,1.0,-12.719578729803525
9.768,0.9999999999999999,-12.89099943901505
9.776,0.9999999999999999,-13.062433313199545
9.784,0.9999999999999999,-13.233880296115565
9.792,1.0,-13.405340331443652
9.8,1.0,-13.576813362787032
9.808,1.0,-13.748299333671856
9.816,1.0,-13.919798187547903
9.824,1.0,-14.091309867788793
9.832,1.0,-14.262834317692779
9.84,1.0,-14.434371480482877
9.847999999999999,1.0,-14.605921299307678
9.856,0.9999999999999999,-14.777483717241683
9.864,0.9999999999999999,-14.949058677285757
9.872,0.9999999999999999,-15.120646122367692
9.879999999999999,1.0,-15.292245995342794
9.888,1.0,-15.463858238994323
9.896,1.0,-15.635482796033918
9.904,1.0,-15.807119609102232
9.911999999999999,1.0,-15.978768620769479
9.92,1.0,-16.15042977353595
9.928,1.0,-16.322103009832436
9.936,1.0,-16.493788272020858
9.943999999999999,0.9999999999999999,-16.665485502394866
9.952,0.9999999999999999,-16.837194643180354
9.96,1.0,-17.008915636535924
9.968,1.0,-17.1806484245535
9.975999999999999,0.9999999999999999,-17.352392949259002
9.984,1.0,-17.524149152612825
9.992,1.0,-17.695916976510336
10.0,0.9999999999999999,-17.86769636278254
10.008,0.9999999999999999,-18.039487253196732
10.016,0.9999999999999999,-18.211289589457017
10.024000000000001,0.9999999569604177,-18.383103313204845
10.032,0.9999998761979231,-18.554928366019645
10.04,0.9999997953765352,-18.726764689419557
10.048,0.9999997145244305,-18.898612224861917
10.056000000000001,0.9999996336698986,-19.07047091374384
10.064,0.9999995528413375,-19.242340697402884
10.072,0.9999994720672447,-19.414221517117785
10.08,0.9999993913762143,-19.58611331410898
10.088000000000001,0.9999993107969292,-19.75801602953918
10.096,0.9999992303581543,-19.929929604514083
10.104,0.9999991500887321,-20.10185398008311
