freq,mag,phase
6.0,0.9999943278378377,68.37922362896765
6.008,0.9999935433120547,68.21744807946324
6.016,0.9999927917502276,68.0556233243608
6.024,0.999992072542754,67.89374932216917
6.032,0.9999913850860922,67.73182603156091
6.04,0.9999907287827319,67.56985341137181
6.048,0.999990103041163,67.4078314206005
6.056,0.9999895072758467,67.24576001840803
6.064,0.9999889409071832,67.08363916411753
6.072,0.9999884033614833,66.92146881721362
6.08,0.9999878940709371,66.7592489373422
6.088,0.9999874124735851,66.59697948431
6.096,0.9999869580132863,66.43466041808409
6.104,0.9999865301396902,66.27229169879169
6.112,0.9999861283082052,66.10987328671958
6.12,0.9999857519799702,65.94740514231393
6.128,0.9999854006218222,65.78488722617975
6.136,0.9999850737062699,65.62231949908073
6.144,0.9999847707114619,65.45970192193865
6.152,0.9999844911211557,65.29703445583324
6.16,0.9999842344246918,65.13431706200176
6.168,0.99998400011696,64.97154970183864
6.176,0.9999837876983723,64.80873233689518
6.184,0.9999835966748328,64.64586492887919
6.192,0.9999834265577077,64.48294743965475
6.2,0.9999832768637961,64.31997983124182
6.208,0.9999831471153006,64.15696206581595
6.216,0.9999830368397988,63.993894105708
6.224,0.9999829455702116,63.83077591340381
6.232,0.9999828728447772,63.66760745154397
6.24,0.9999828182070186,63.50438868292348
6.248,0.999982781205717,63.341119570491436
6.256,0.999982761394881,63.17780007735093
6.264,0.9999827583337177,63.01443016675853
6.272,0.9999827715866053,62.85100980212422
6.28,0.9999828007230616,62.68753894701105
6.288,0.9999828453177165,62.52401756513498
6.296,0.9999829049502831,62.36044562036442
6.304,0.9999829792055275,62.196823076720264
6.312,0.9999830676732427,62.0331498983755
6.32,0.9999831699482165,61.869426049654976
6.328,0.9999832856302046,61.70565149503523
6.336,0.9999834143239023,61.541826199144246
6.344,0.9999835556389144,61.377950126761256
6.352,0.9999837091897273,61.21402324281657
6.36,0.9999838745956812,61.050045512391286
6.368,0.9999840514809392,60.886016900717124
6.376,0.9999842394744624,60.721937373176324
6.384,0.999984438209978,60.55780689530138
6.392,0.9999846473259524,60.393625432774876
6.4,0.9999848664655638,60.22939295142926
6.408,0.9999850952766712,60.065109417246845
6.416,0.9999853334117897,59.90077479635943
6.424,0.9999855805280586,59.7363890550483
6.432,0.9999858362872162,59.571952159744065
6.44,0.9999861003555695,59.40746407702641
6.448,0.9999863724039676,59.242924773624026
6.456,0.9999866521077728,59.078334216414525
6.464,0.9999869391468327,58.91369237242423
6.472,0.9999872332054531,58.74899920882805
6.48,0.9999875339723682,58.584254692949465
6.4879999999999995,0.9999878411407144,58.41945879226028
6.496,0.9999881544080026,58.254611474380546
6.504,0.9999884734760887,58.08971270707861
6.5120000000000005,0.9999887980511472,57.92476245827079
6.52,0.9999891278436434,57.75976069602148
6.5280000000000005,0.9999894625683053,57.594707388542865
6.536,0.9999898019440961,57.42960250419511
6.5440000000000005,0.9999901456941871,57.26444601148596
6.552,0.9999904935459297,57.099237879070984
6.5600000000000005,0.9999908452308274,56.93397807575325
6.568,0.9999912004845098,56.76866657048346
6.5760000000000005,0.9999915590467039,56.60330333235978
6.584,0.9999919206612073,56.43788833062786
6.592,0.9999922850758608,56.27242153468072
6.6,0.9999926520425216,56.106902914058765
6.608,0.9999930213170352,55.941332438449706
6.616,0.9999933926592085,55.77571007768866
6.624,0.9999937658327832,55.61003580175792
6.632,0.9999941406054086,55.44430958078711
6.64,0.9999945167486138,55.27853138505308
6.648,0.999994894037782,55.11270118497995
6.656,0.9999952722521216,54.94681895113907
6.664,0.999995651174642,54.78088465424904
6.672,0.9999960305921239,54.614898265175725
6.68,0.9999964102950956,54.44885975493226
6.688,0.9999967900778026,54.282769094679026
6.696,0.9999971697381843,54.116626255723794
6.704,0.999997549077845,53.95043120952159
6.712,0.9999979279020286,53.78418392767485
6.72,0.9999983060195914,53.61788438193342
6.728,0.9999986832429759,53.45153254419456
6.736,0.999999059388184,53.28512838650309
6.744,0.9999994342747509,53.11867188105132
6.752,0.9999998077257188,52.9521630001792
6.76,1.0000000000000002,52.785601716374345
6.768,1.0,52.61898800227209
6.776,1.0,52.4523218306556
6.784,1.0,52.28560317445593
6.792,0.9999999999999999,52.11883200675208
6.8,1.0,51.9520083007711
6.808,0.9999999999999999,51.78513202988822
6.816,0.9999999999999999,51.61820316762686
6.824,1.0,51.45122168765886
6.832,0.9999999999999999,51.284187563804394
6.84,1.0,51.117100770032295
6.848,1.0,50.94996128046004
6.856,1.0,50.78276906935384
6.864,0.9999999999999999,50.615524111128884
6.872,0.9999999999999999,50.4482263803494
6.88,0.9999999999999999,50.28087585172875
6.888,1.0,50.11347250012965
6.896,0.9999999999999999,49.94601630056427
6.904,1.0,49.778507228194336
6.912,1.0,49.6109452583314
6.92,1.0,49.44333036643687
6.928,0.9999999999999999,49.275662528122226
6.936,1.0,49.107941719149224
6.944,1.0,48.94016791542999
6.952,1.0,48.77234109302724
6.96,0.9999999999999999,48.60446122815441
6.968,0.9999999999999998,48.43652829717597
6.976,1.0,48.26854227660738
6.984,1.0,48.10050314311549
6.992,1.0,47.9324108735187
7.0,0.9999999999999999,47.76426544478704
7.008,1.0,47.59606683404247
7.016,0.9999999999999999,47.42781501855914
7.024,0.9999999999999999,47.259509975763415
7.032,0.9999999999999998,47.091151683234315
7.04,1.0,46.92274011870356
7.048,1.0,46.754275260055906
7.056,0.9999999999999999,46.58575708532932
7.064,1.0000000000000002,46.41718557271522
7.072,0.9999999999999999,46.24856070055869
7.08,0.9999999999999999,46.07988244735879
7.088,0.9999999999999999,45.911150791768755
7.096,1.0,45.74236571259621
7.104,0.9999999999999999,45.573527188803475
7.112,0.9999999999999999,45.4046351995078
7.12,1.0,45.23568972398165
7.128,1.0,45.06669074165293
7.136,1.0,44.897638232105294
7.144,1.0,44.72853217507836
7.152,1.0,44.55937255046805
7.16,1.0,44.390159338326804
7.168,0.9999999999999999,44.22089251886395
7.176,1.0,44.051572072445914
7.184,0.9999999999999999,43.88219797959655
7.192,1.0,43.71277022099736
7.2,1.0,43.54328877748797
7.208,1.0,43.37375363006619
7.216,1.0,43.20416475988853
7.224,1.0,43.034522148270376
7.232,0.9999999999999999,42.86482577668636
7.24,1.0,42.695075626770645
7.248,1.0,42.525271680317324
7.256,1.0,42.35541391928063
7.264,0.9999999999999999,42.18550232577531
7.272,1.0,42.015536882076965
7.28,1.0,41.84551757062236
7.288,1.0,41.675444374009835
7.296,1.0,41.5053172749995
7.304,1.0,41.3351362565137
7.312,1.0,41.16490130163732
7.32,1.0,40.99461239361814
7.328,1.0,40.824269515867165
7.336,1.0,40.653872651958984
7.344,1.0,40.483421785632196
7.352,1.0,40.31291690078961
7.36,1.0,40.14235798149884
7.368,1.0,39.97174501199247
7.376,0.9999999999999999,39.801077976668516
7.384,0.9999999999999999,39.630356860090764
7.392,0.9999999999999999,39.4595816469892
7.4,1.0,39.28875232226034
7.4079999999999995,0.9999999999999999,39.11786887096763
7.416,1.0,38.94693127834175
7.4239999999999995,0.9999999999999999,38.77593952978125
7.432,0.9999999999999999,38.60489361085255
7.4399999999999995,1.0000000000000002,38.433793507290765
7.448,0.9999999999999999,38.26263920499968
7.4559999999999995,0.9999999999999999,38.09143069005254
7.464,1.0,37.92016794869211
7.4719999999999995,0.9999999999999999,37.74885096733133
7.48,1.0,37.57747973255356
7.4879999999999995,0.9999999999999999,37.40605423111312
7.496,1.0,37.234574449935515
7.504,1.0,37.06304037611812
7.5120000000000005,0.9999999999999999,36.89145199693026
7.52,1.0,36.719809299813974
7.5280000000000005,1.0,36.548112272384145
7.536,1.0,36.376360902429134
7.5440000000000005,1.0,36.204555177911004
7.552,0.9999999999999999,36.03269508696621
7.5600000000000005,0.9999999999999999,35.86078061790573
7.568,1.0,35.688811759215746
7.5760000000000005,0.9999999999999999,35.51678849955784
7.584,1.0,35.3447108277698
7.5920000000000005,1.0,35.172578732865524
7.6,0.9999999999999999,35.00039220403605
7.6080000000000005,1.0,34.82815123064939
7.616,1.0,34.6558558022516
7.6240000000000006,1.0,34.48350590856667
7.632,1.0,34.311101539497365
7.640000000000001,0.9999999999999999,34.1386426851254
7.648,1.0,33.96612933571211
7.656000000000001,1.0,33.79356148169874
7.664,1.0,33.620939113707024
7.672,1.0,33.448262222539505
7.68,1.0,33.275530799180096
7.688,0.9999999999999999,33.10274483479453
7.696,0.9999999999999999,32.92990432073077
7.704,1.0,32.75700924851951
7.712,1.0,32.584059609874636
7.72,1.0,32.41105539669368
7.728,1.0,32.23799660105828
7.736,1.0,32.06488321523466
7.744,0.9999999999999998,31.891715231674084
7.752,1.0,31.718492643013374
7.76,1.0,31.545215442075314
7.768,1.0,31.371883621869124
7.776,1.0,31.198497175591022
7.784,1.0,31.025056096624617
7.792,0.9999999999999998,30.851560378541382
7.8,1.0,30.678010015101187
7.808,1.0000000000000002,30.504405000252724
7.816,0.9999999999999999,30.330745328134018
7.824,1.0,30.15703099307289
7.832,0.9999999999999999,29.983261989587426
7.84,1.0,29.809438312386504
7.848,0.9999999999999999,29.63555995637026
7.856,1.0,29.461626916630475
7.864,1.0,29.287639188451237
7.872,0.9999999999999999,29.11359676730926
7.88,0.9999999999999999,28.93949964887448
7.888,1.0,28.765347829010462
7.896,0.9999999999999999,28.591141303774947
7.904,1.0,28.41688006942029
7.912,0.9999999548013739,28.242564122394
7.92,0.999999588132206,28.068193459339163
7.928,0.9999992190383507,27.89376807709496
7.936,0.9999988476029308,27.71928797269718
7.944,0.9999984739093359,27.54475314337867
7.952,0.9999980980412068,27.37016358656983
7.96,0.999997720082418,27.195519299899118
7.968,0.9999973401170641,27.020820281193522
7.976,0.9999969582294427,26.846066528479064
7.984,0.9999965745040397,26.671258039981247
7.992,0.9999961890255131,26.49639481412562
8.0,0.9999958018786782,26.32147684953818
8.008,0.9999954131484924,26.14650414504594
8.016,0.9999950229200397,25.971476699677304
8.024000000000001,0.9999946312785164,25.79639451266271
8.032,0.9999942383092146,25.621257583435057
8.04,0.9999938440975094,25.446065911630065
8.048,0.9999934487288421,25.270819497086897
8.056000000000001,0.9999930522887073,25.095518339848674
8.064,0.9999926548626376,24.92016244016291
8.072,0.9999922565361884,24.74475179848191
8.08,0.9999918573949247,24.569286415463363
8.088000000000001,0.999991457524407,24.393766291970827
8.096,0.9999910570101755,24.218191429074242
8.104,0.9999906559377376,24.042561828050236
8.112,0.9999902543925536,23.86687749038274
8.120000000000001,0.9999898524600224,23.691138417763543
8.128,0.9999894502254681,23.51534461209269
8.136,0.9999890477741262,23.339496075478873
8.144,0.9999886451911302,23.163592810239983
8.152000000000001,0.999988242561498,22.987634818903736
8.16,0.9999878399701185,22.811622104207967
8.168,0.9999874375017386,22.63555466910108
8.176,0.99998703524095,22.459432516742616
8.184000000000001,0.9999866332721755,22.283255650503776
8.192,0.9999862316796577,22.107024073967857
8.2,0.999985830547444,21.930737790930568
8.208,0.9999854299593749,21.754396805400674
8.216000000000001,0.9999850299990726,21.57800112160046
8.224,0.9999846307499262,21.401550743966183
8.232,0.9999842322950808,21.22504567714841
8.24,0.9999838347174246,21.048485926012603
8.248000000000001,0.9999834380995768,20.871871495639642
8.256,0.9999830425238758,20.695202391326198
8.264,0.9999826480723667,20.518478618585117
8.272,0.9999822548267898,20.341700183145978
8.280000000000001,0.999981862868568,20.164867090955603
8.288,0.9999814722787967,19.98797934817848
8.296,0.999981083138231,19.811036961197043
8.304,0.9999806955272738,19.634039936612304
8.312,0.9999803095259658,19.456988281244357
8.32,0.9999799252139737,19.279882002132585
8.328,0.9999795426705784,19.102721106536404
8.336,0.9999791619746646,18.925505601935356
8.344,0.9999787832047103,18.748235496029945
8.352,0.9999784064387747,18.5709107967417
8.36,0.9999780317544884,18.393531512213922
8.368,0.9999776592290427,18.216097650811854
8.376,0.999977288939179,18.038609221123387
8.384,0.9999769209611779,17.8610662319592
8.392,0.99997655537085,17.68346869235345
8.4,0.9999761922435251,17.50581661156395
8.408,0.9999758316540417,17.32810999907287
8.416,0.9999754736767374,17.150348864586835
8.424,0.9999751183854397,16.972533218037697
8.432,0.9999747658534555,16.794663069582594
8.44,0.9999744161535611,16.616738429604652
8.448,0.9999740693579942,16.43875930871317
8.456,0.9999737255384424,16.260725717744265
8.464,0.9999733847660358,16.082637667760977
8.472,0.999973047111337,15.904495170053982
8.48,0.9999727126443321,15.72629823614169
8.488,0.9999723814344209,15.548046877770975
8.496,0.9999720535504095,15.369741106917171
8.504,0.999971729060501,15.191380935784839
8.512,0.9999714080322866,15.01296637680784
8.52,0.9999710905327367,14.834497442650004
8.528,0.9999707766281939,14.655974146205201
8.536,0.9999704663843629,14.477396500598037
8.544,0.9999701598663039,14.298764519183901
8.552,0.9999698571384235,14.120078215549645
8.56,0.9999695582644673,13.941337603513668
8.568,0.9999692633075121,13.762542697126536
8.576,0.999968972329957,13.583693510671093
8.584,0.9999686853935174,13.404790058663014
8.592,0.999968402559216,13.225832355851006
8.6,0.9999681238873775,13.046820417217317
8.608,0.9999678494376187,12.867754257977877
8.616,0.9999675792688435,12.68863389358284
8.624,0.9999673134392334,12.5094593397167
8.632,0.9999670520062446,12.330230612298887
8.64,0.9999667950265956,12.150947727483828
8.648,0.9999665425562667,11.971610701661469
8.656,0.9999662946504877,11.79221955145744
8.664,0.9999660513637345,11.612774293733539
8.672,0.9999658127497233,11.433274945587831
8.68,0.9999655788614019,11.25372152435522
8.688,0.9999653497509456,11.074114047607393
8.696,0.9999651254697492,10.894452533153558
8.704,0.999964906068424,10.714736999040277
8.712,0.999964691596789,10.534967463552174
8.72,0.9999644821038663,10.355143945211836
8.728,0.9999642776378765,10.175266462780513
8.736,0.999964078246232,9.995335035257849
8.744,0.9999638839755323,9.815349681882752
8.752,0.999963694871557,9.635310422133186
8.76,0.9999635109792646,9.45521727572672
8.768,0.9999633323427835,9.275070262620527
8.776,0.9999631590054086,9.09486940301198
8.784,0.999962991009597,8.914614717338516
8.792,0.9999628283969627,8.73430622627818
8.8,0.9999626712082724,8.553943950749622
8.808,0.999962519483441,8.373527911912596
8.815999999999999,0.9999623732615266,8.19305813116788
8.824,0.9999622325807274,8.012534630157717
8.832,0.9999620974783769,7.83195743076597
8.84,0.9999619679909402,7.651326555118294
8.847999999999999,0.9999618441540095,7.470642025582383
8.856,0.999961726002301,7.289903864768095
8.864,0.9999616135696519,7.109112095527733
8.872,0.9999615068890149,6.928266740956282
8.879999999999999,0.9999614059924566,6.747367824391337
8.888,0.9999613109111537,6.566415369413544
8.896,0.9999612216753889,6.385409399846688
8.904,0.9999611383145497,6.204349939757832
8.911999999999999,0.999961060857123,6.023237013457447
8.92,0.9999609893306957,5.842070645499541
8.928,0.9999609237619472,5.66085086068204
8.936,0.9999608641766511,5.479577684046682
8.943999999999999,0.9999608105996712,5.29825114087914
8.952,0.9999607630549578,5.116871256709294
8.96,0.999960721565548,4.935438057311303
8.968,0.999960686153561,4.7539515687037746
8.975999999999999,0.9999606568401979,4.572411817149657
8.984,0.9999606336457381,4.390818829156607
8.992,0.9999606165895399,4.209172631476922
9.0,0.9999606056900361,4.027473251107833
9.008,0.9999606009647338,3.845720715291231
9.016,0.999960602430213,3.663915051514023
9.024000000000001,0.9999606101021251,3.4820562875082146
9.032,0.9999606239951914,3.300144451250885
9.04,0.9999606441232015,3.118179570964196
9.048,0.9999606704990142,2.9361616751154833
9.056000000000001,0.9999607031345537,2.7540907924173927
9.064,0.9999607420408109,2.571966951827868
9.072,0.9999607872278421,2.389790182550085
9.08,0.999960838704769,2.207560514032518
9.088000000000001,0.9999608964797766,2.025277975969122
9.096,0.9999609605601147,1.8429425982991965
9.104,0.9999610309520965,1.6605544112072743
9.112,0.9999611076610988,1.4781134451232996
9.120000000000001,0.9999611906915623,1.2956197307226478
9.128,0.9999612800469906,1.1130732989260146
9.136,0.9999613757299521,0.9304741808992685
9.144,0.9999614777420786,0.7478224080536322
9.152000000000001,0.9999615860840673,0.5651180120455783
9.16,0.999961700755679,0.3823610247767947
9.168,0.9999618217557419,0.1995514783940206
9.176,0.9999619490821496,0.01668940528902481
9.184000000000001,0.9999620827318637,-0.16622516190131453
9.192,0.9999622227009135,-0.3491921902952276
9.2,0.9999623689843978,-0.5322116467661645
9.208,0.9999625215764865,-0.7152834979428407
9.216000000000001,0.9999626804704196,-0.8984077102092842
9.224,0.9999628456585127,-1.0815842497049721
9.232,0.9999630171321545,-1.2648130823250034
9.24,0.9999631948818106,-1.4480941737203104
9.248000000000001,0.9999633788970237,-1.6314274892974399
9.256,0.999963569166418,-1.8148129942190219
9.264,0.999963765677698,-1.9982506534038933
9.272,0.9999639684176529,-2.1817404315271274
9.280000000000001,0.9999641773721576,-2.365282293020204
9.288,0.9999643925261746,-2.548876202071242
9.296,0.9999646138637581,-2.732522122625202
9.304,0.9999648413680545,-2.9162200183841067
9.312000000000001,0.999965075021306,-3.099969852807011
9.32,0.9999653148048534,-3.283771589110469
9.328,0.9999655606991374,-3.467625190268647
9.336,0.999965812683704,-3.6515306190135677
9.344,0.9999660707372051,-3.835487837835229
9.352,0.9999663348374033,-4.019496808982042
9.36,0.9999666049611734,-4.203557494460896
9.368,0.9999668810845076,-4.387669856037597
9.376,0.9999671631825171,-4.571833855236844
9.384,0.9999674512294371,-4.7560494533429445
9.392,0.9999677451986291,-4.940316611399596
9.4,0.9999680450625855,-5.124635290210626
9.408,0.9999683507929331,-5.309005450339925
9.416,0.9999686623604368,-5.493427052112088
9.424,0.9999689797350039,-5.677900055612394
9.432,0.9999693028856879,-5.862424420687504
9.44,0.9999696317806934,-6.04700010694539
9.448,0.9999699663873791,-6.231627073756121
9.456,0.9999703066722632,-6.416305280251773
9.464,0.9999706526010278,-6.6010346853272015
9.472,0.9999710041385228,-6.785815247640065
9.48,0.9999713612487716,-6.970646925611533
9.488,0.9999717238949752,-7.155529677426337
9.496,0.9999720920395172,-7.340463461033524
9.504,0.9999724656439685,-7.525448234146529
9.512,0.9999728446690932,-7.710483954243915
9.52,0.9999732290748524,-7.895570578569491
9.528,0.9999736188204115,-8.080708064133072
9.536,0.9999740138641425,-8.265896367710607
9.544,0.999974414163633,-8.451135445844935
9.552,0.9999748196756885,-8.636425254845962
9.56,0.9999752303563407,-8.821765750791442
9.568,0.9999756461608514,-9.007156889527174
9.576,0.9999760670437183,-9.192598626667788
9.584,0.9999764929586827,-9.378090917596927
9.592,0.9999769238587334,-9.56363371746811
9.6,0.9999773596961133,-9.74922698120493
9.608,0.9999778004223271,-9.934870663501902
9.616,0.9999782459881454,-10.120564718824694
9.624,0.9999786963436122,-10.306309101411008
9.632,0.9999791514380509,-10.492103765270832
9.64,0.9999796112200713,-10.677948664187312
9.648,0.999980075637576,-10.863843751717072
9.656,0.999980544637766,-11.049788981191044
9.664,0.9999810181671496,-11.235784305714851
9.672,0.9999814961715475,-11.421829678169688
9.68,0.9999819785961009,-11.607925051212613
9.688,0.9999824653852767,-11.79407037727759
9.696,0.9999829564828769,-11.98026560857572
9.704,0.9999834518320443,-12.166510697096264
9.712,0.9999839513752702,-12.352805594607014
9.72,0.9999844550544019,-12.53915025265525
9.728,0.9999849628106493,-12.725544622568131
9.736,0.9999854745845939,-12.911988655453715
9.744,0.9999859903161945,-13.098482302201347
9.752,0.9999865099447967,-13.285025513482712
9.76,0.9999870334091392,-13.471618239752228
9.768,0.9999875606473625,-13.658260431248113
9.776,0.9999880915970163,-13.844952037992833
9.784,0.9999886261950676,-14.031693009794186
9.792,0.999989164377909,-14.218483296245727
9.8,0.9999897060813663,-14.405322846727918
9.808,0.9999902512407071,-14.59221161040856
9.816,0.9999907997906485,-14.779149536243969
9.824,0.9999913516653663,-14.966136572979417
9.832,0.9999919067985029,-15.153172669150338
