freq,mag,phase
6.0,0.9996239063190127,119.82627029741742
6.002287616,0.9997114364417458,119.66363903596572
6.004575232,0.9998178244965813,119.49960013642797
6.006862848,0.999935696699085,119.33399497666677
6.009150464,1.0000576999261235,119.16665869233468
6.011438592,1.0001761072804063,118.9975692915007
6.013726208,1.0002836759631522,118.82692606771113
6.016013824,1.0003730898257932,118.65484832431781
6.01830144,1.0004391845531797,118.48165821358224
6.020589056,1.0004775863448248,118.30775801780466
6.022876672,1.000485949015463,118.13350522508478
6.025164288,1.000463635376922,117.9594118692354
6.027451904,1.00041201193157,117.78583122123872
6.029740032,1.0003343124117343,117.61323471650954
6.032027648,1.0002356462834887,117.44195867703476
6.034315264,1.0001217559907163,117.27220532133317
6.03660288,1.000000201392676,117.1042167291961
6.038890496,0.999878534232675,116.93800357920648
6.041178112,0.999764395614919,116.77351598903556
6.043465728,0.9996650647090192,116.61060524975107
6.045753344,0.9995866579830722,116.44899729663203
6.04804096,0.9995343651121491,116.28838491614337
6.050329088,0.999511212668897,116.12835919462162
6.052616704,0.9995190694148623,115.96843743600812
6.05490432,0.9995571039407909,115.80823840850587
6.057191936,0.9996232773217564,115.64729827882336
6.059479552,0.9997132042411793,115.48523199456689
6.061767168,0.9998212186617973,115.32179079575822
6.064054784,0.9999404602927586,115.15670692186694
6.0663424,1.000063715932247,114.98986803931821
6.068630016,1.0001830308260486,114.82132222238435
6.070918144,1.0002907258410614,114.65113093015822
6.07320576,1.000380159542455,114.47954792166232
6.075493376,1.0004457026621663,114.30686572899269
6.077780992,1.000483340214101,114.13346996163341
6.080068608,1.0004902641774263,113.95974960307113
6.082356224,1.0004663433983807,113.78618786793314
6.08464384,1.000412989831238,113.6132024435038
6.086931456,1.0003335583040471,113.44118028884891
6.089219584,1.0002329140437545,113.27050702750167
6.0915072,1.000117564321585,113.10142036268132
6.093794816,0.9999945667748042,112.9340684906114
6.096082432,0.9998720158623832,112.76853821867336
6.098370048,0.9997571459733262,112.60472557200512
6.100657664,0.9996576365762381,112.44253611410657
6.10294528,0.9995796803310368,112.28163328524865
6.105232896,0.9995281242396435,112.12171174976373
6.107520512,0.9995062423954312,111.9623190090889
6.10980864,0.99951542820793,111.80305341002084
6.112096256,0.9995553177750183,111.6434989865148
6.114383872,0.9996232706003503,111.4831386583792
6.116671488,0.9997148776379862,111.32168644482962
6.118959104,0.999824735918567,111.15874522682626
6.12124672,0.9999455368525578,110.99420893245117
6.123534336,1.00006994675138,110.8278728726134
6.125821952,1.0001899222051553,110.65981937555745
6.128109568,1.0002980724542836,110.49012006349571
6.130397696,1.0003874703535338,110.31901325066985
6.132685312,1.0004524270065533,110.1467942458452
6.134972928,1.0004888568138086,109.97388653607386
6.137260544,1.0004944854335518,109.80068039211548
6.13954816,1.0004689789369021,109.62763538410954
6.141835776,1.0004138322128335,109.45519541265199
6.144123392,1.0003324903236956,109.28376822342489
6.146411008,1.000230097875817,109.11369444637363
6.148699136,1.0001131587992116,108.94524170551752
6.150986752,0.9999888933027095,108.77856814859516
6.153274368,0.9998651710753168,108.61368512208122
6.155561984,0.9997499277666054,108.45056661299091
6.1578496,0.9996503036854235,108.28903071806543
6.160137216,0.9995726165684332,108.12883710936839
6.162424832,0.9995218835350245,107.96956611418021
6.164712448,0.9995012624728865,107.81085659988022
6.167000064,0.9995121056712047,107.65223657216909
6.169288192,0.9995536798671358,107.4932706719693
6.171575808,0.9996234744262974,107.33351357730349
6.173863424,0.9997171185232332,107.17258527941692
6.17615104,0.9998286499274983,107.0102110531992
6.178438656,0.9999509604693978,106.84614411233834
6.180726272,1.000076536907756,106.68031928636128
6.183013888,1.0001973684541052,106.51272324152293
6.185301504,1.0003057779903795,106.34347397906693
6.18758912,1.0003949456794072,106.1728454035588
6.189877248,1.0004592407112596,106.00110729844667
6.192164864,1.0004947485820535,105.82864550646902
6.19445248,1.0004988786538718,105.65596569269132
6.196740096,1.0004716143650951,105.48342279922575
6.199027712,1.0004144678939761,105.31153950339971
6.201315328,1.0003313076308065,105.14069538616009
6.203602944,1.0002270384729075,104.97120815849416
6.20589056,1.000108386077905,104.80336711453519
6.208178688,0.9999828571981333,104.63731267200805
6.210466304,0.9998580530736899,104.47312167340421
6.21275392,0.9997422892145472,104.31066629020253
6.215041536,0.9996426873076601,104.14981177938289
6.217329152,0.9995653379801209,103.99026873206613
6.219616768,0.9995156007422443,103.83166759166079
6.221904384,0.9994961993319977,103.67359630110538
6.224192,0.9995086457792658,103.51561392079154
6.226479616,0.9995521235917951,103.35722994257577
6.228767744,0.9996238053361067,103.1980519858066
6.23105536,0.9997193250858964,103.03766458196655
6.233342976,0.9998326540499964,102.87579438290533
6.235630592,0.9999565635104902,102.7122331327515
6.237918208,1.000083236678315,102.54687228205972
6.240205824,1.000204912333069,102.37971748940639
6.24249344,1.000313534325873,102.2109325957685
6.244781056,1.000402539504577,102.0407086016819
6.247068672,1.0004661266669772,101.8694331279206
6.2493568,1.0005004397334,101.69744367277698
6.251644416,1.0005032026911853,101.52521405607081
6.253932032,1.0004741074380559,101.35319957980637
6.256219648,1.0004151424885195,101.18184480506555
6.258507264,1.0003298847397872,101.01153710352588
6.26079488,1.0002237391681004,100.84263869120666
6.263082496,1.000103500206975,100.67542615951392
6.265370112,0.9999764047491034,100.50999769604209
6.26765824,0.9998508339109976,100.34644088039022
6.269945856,0.9997344570436629,100.18466521079756
6.272233472,0.999634799680324,100.02445323054066
6.274521088,0.999558002838368,99.86557954980425
6.276808704,0.9995090857595598,99.70763378516659
6.27909632,0.9994911317803549,99.55018035964858
6.281383936,0.9995052686306715,99.39279017715526
6.283671552,0.9995506481077269,99.23499002457297
6.285959168,0.999624411837504,99.07637485003069
6.288247296,0.9997218949471613,98.91651002541411
6.290534912,0.9998369272973416,98.75512867666141
6.292822528,0.9999624492369206,98.59201326457077
6.295110144,1.0000903254387083,98.42711358387207
6.29739776,1.0002125467474774,98.26039468714396
6.299685376,1.0003215669296892,98.09204698475563
6.301972992,1.0004103145323162,97.9222678178024
6.304260608,1.0004732257829783,97.75139409610205
6.306548224,1.0005062874733905,97.5798607376258
6.308836352,1.0005074500406774,97.40807832122633
6.311123968,1.0004765483971885,97.23655941232207
6.313411584,1.000415633959467,97.06569767941758
6.3156992,1.0003283902338025,96.8959616183648
6.317986816,1.0002202656934929,96.7276196064247
6.320274432,1.0000982686847826,96.5610012815029
6.322562048,0.9999698504923284,96.39621082261397
6.324849664,0.9998431932903927,96.23327899091413
6.327137792,0.9997264021222813,96.0721376713754
6.329425408,0.9996267545847906,95.91258857613671
6.331713024,0.9995505362879158,95.75432714495926
6.33400064,0.9995026064178526,95.59702320213931
6.336288256,0.9994860733631338,95.44019334055197
6.338575872,0.9995019341836043,95.28339901084503
6.340863488,0.9995493028063589,95.1261682666811
6.343151104,0.9996250291903159,94.96805335309986
6.34543872,0.9997246452530093,94.8087062543167
6.347726848,0.9998414845817107,94.6477792352187
6.350014464,0.9999685286535266,94.48513527230453
6.35230208,1.000097674402679,94.32064842646291
6.354589696,1.0002206858329292,94.15434261394603
6.356877312,1.000329860936115,93.98638158047872
6.359164928,1.0004182801185109,93.81700646971136
6.361452544,1.0004803383961671,93.64655103806778
6.36374016,1.000512260214039,93.47544578838891
6.366027776,1.0005116752641319,93.30412155972256
6.368315904,1.0004790365510778,93.13305921432865
6.37060352,1.0004159204075926,92.96270900749388
6.372891136,1.0003265739548526,92.79347673578317
6.375178752,1.0002165590979988,92.6257305603527
6.377466368,1.0000927803881159,92.45966475299537
6.379753984,0.9999629255618657,92.29545866526588
6.3820416,0.999835395336341,92.13316100104527
6.384329216,0.9997181228041678,91.97265455097212
6.386617344,0.9996185353195766,91.81372814338481
6.38890496,0.9995428861169164,91.65612497188194
6.391192576,0.9994960274871763,91.49941365899693
6.393480192,0.9994809896459055,91.34316921428568
6.395767808,0.9994986722225694,91.1869485466573
6.398055424,0.9995479577610111,91.0302571804724
6.40034304,0.9996259353702749,90.87266864711134
6.402630656,0.999727515180764,90.71376563748831
6.404918272,0.999846353293821,90.5533267195914
6.4072064,0.9999749578586309,90.39110738221171
6.409494016,1.000105242609677,90.22699260914355
6.411781632,1.000228973583942,90.06109219042851
6.414069248,1.0003383751780304,89.89349886540961
6.416356864,1.0004264125048814,89.72451190000696
6.41864448,1.0004876556103992,89.55445411793382
6.420932096,1.000518136886618,89.38375514670305
6.423219712,1.0005159394327077,89.21286282554586
6.425507328,1.000481193780364,89.0422366467453
6.427795456,1.0004161861887009,88.87237216835766
6.430083072,1.0003245750172243,88.70365207267577
6.432370688,1.0002125809964773,88.53642073014994
6.434658304,1.000087112033428,88.37094331866848
6.43694592,0.9999558895912135,88.20732449955622
6.439233536,0.9998272985174667,88.04563069670984
6.441521152,0.9997096066016175,87.88572951493036
6.443808768,0.9996100690447106,87.7274472962204
6.446096896,0.9995350423915125,87.57042747076599
6.448384512,0.9994893618518468,87.41429325155735
6.450672128,0.9994758665697537,87.25864812997204
6.452959744,0.9994954731245099,87.1029958960454
6.45524736,0.9995468403683381,86.94680402947827
6.457534976,0.9996269085349103,86.78969261289171
6.459822592,0.9997305951463906,86.63128751641185
6.462110208,0.9998514074354913,86.47125990595566
6.464397824,0.9999815513218241,86.30943178596843
6.466685952,1.0001130429672718,86.14571306543755
6.468973568,1.000237487421543,85.9801664869234
6.471261184,1.00034702397007,85.81293820259651
6.4735488,1.0004346030378815,85.64430257399228
6.475836416,1.0004949880675762,85.4746049407613
6.478124032,1.0005241506340676,85.30429551104467
6.480411648,1.00052016925233,85.13378940989766
6.482699264,1.000483476363294,84.96362447345912
6.48498688,1.0004161561338254,84.79420759179446
6.487275008,1.0003224839222242,84.62598271436816
6.489562624,1.000208404536302,84.45927646721199
6.49185024,1.0000810332420875,84.29432910306463
6.494137856,0.9999485509436382,84.13130020394308
6.496425472,0.999819014476732,83.97017876998954
6.498713088,0.999700892392619,83.81087097909194
6.501000704,0.9996014736358629,83.65316554799011
6.50328832,0.9995271242193948,83.49676850774149
6.505576448,0.9994825958501654,83.34123872492319
6.507864064,0.999470739164311,83.18614057924707
6.51015168,0.9994922951587119,83.0309705505649
6.512439296,0.9995458151230814,82.87530996387439
6.514726912,0.9996281643535857,82.7186425113348
6.517014528,0.999733975216021,82.56068295379308
6.519302144,0.9998566547221607,82.40104825768415
6.52158976,0.99998851066753,82.23959347487165
6.523877376,1.000121160851159,82.07624321048316
6.526165504,1.0002462413559237,81.91103814464753
6.52845312,1.0003558700634465,81.74413028387964
6.530740736,1.000443060456333,81.57584473033567
6.533028352,1.0005023720475918,81.40650768005408
6.535315968,1.000530134372012,81.23652055824341
6.537603584,1.0005243529741847,81.0664101862689
6.5398912,1.0004854912854095,80.89664686414635
6.542178816,1.0004160037391472,80.72766723253348
6.544466432,1.0003200663303946,80.5599305676147
6.54675456,1.0002039217439216,80.39372030292209
6.549042176,1.000074782071558,80.22932499946553
6.551329792,0.9999407518132681,80.0668467558134
6.553617408,0.9998104894137912,79.9062871085767
6.555905024,0.9996918947287823,79.74754901180543
6.55819264,0.9995927174375727,79.5904239405142
6.560480256,0.9995191253380485,79.43459251954805
6.562767872,0.9994758610488278,79.27962026711606
6.565056,0.9994656687742067,79.12506296525544
6.567343616,0.9994891632049667,78.97041497428721
6.569631232,0.9995449729153885,78.8151936334538
6.571918848,0.9996296121147867,78.6590078459108
6.574206464,0.9997375153846241,78.50140372970934
6.57649408,0.9998622426172097,78.34217527042499
6.578781696,0.9999956926336151,78.1810790490765
6.581069312,1.000129479007391,78.01805624273855
6.583356928,1.0002552281101584,77.85315688099858
6.585645056,1.00036490577229,77.6865746291608
6.587932672,1.0004516577024076,77.5185775830004
6.590220288,1.000509941733264,77.34956361225531
6.592507904,1.000536154301226,77.17992568762851
6.59479552,1.000528421445535,77.01018136653026
6.597083136,1.0004874213267907,76.84079484232788
6.599370752,1.0004156557024104,76.6722402734115
6.601658368,1.000317480712091,76.50493724042188
6.603945984,1.0001992139353857,76.33923083750959
6.606234112,1.0000682362588351,76.17532144087687
6.608521728,0.9999328041598734,76.01338805188138
6.610809344,0.9998015499798854,75.85339661956877
6.61309696,0.9996826449024209,75.6952448144898
6.615384576,0.9995837409627687,75.53866862665002
6.617672192,0.9995109437235188,75.3833812052136
6.619959808,0.999468987245142,75.22894076787824
6.622247424,0.9994605712670921,75.07488649929753
6.624535552,0.9994861400210637,74.92070616771402
6.626823168,0.9995442832179101,74.76594770698695
6.629110784,0.9996311831122286,74.61017571051954
6.6313984,0.9997414490020529,74.45298829768464
6.633686016,0.9998681160036227,74.29409047318521
6.635973632,1.0000031531314901,74.13331029745463
6.638261248,1.000138229053182,73.97056293914333
6.640548864,1.000264551085248,73.80596342743539
6.64283648,1.0003742844913714,73.63966034566083
6.645124608,1.0004605056711158,73.47195157961059
6.647412224,1.0005177102617764,73.30321597052244
6.64969984,1.0005422812980143,73.13391591339513
6.651987456,1.0005326351327628,72.96450921445563
6.654275072,1.000489387062026,72.79548966014896
6.656562688,1.0004151965293535,72.6273471281313
6.658850304,1.0003146916604106,72.46049290099525
6.66113792,1.000194256631451,72.29522485824519
6.663426048,1.000061520822709,72.13181398064349
6.665713664,0.9999247017957854,71.97037974221904
6.66800128,0.9997924582977212,71.81092282266744
6.670288896,0.999673203149194,71.65329720083542
6.672576512,0.9995745721489123,71.49726370205612
6.674864128,0.9995026999584339,71.34250905308332
6.677151744,0.9994621051398875,71.18856084889222
6.67943936,0.9994554918843883,71.03501473112566
6.681726976,0.999483281472303,70.88130530746876
6.684015104,0.9995436936537513,70.72697688977381
6.68630272,0.9996329525816949,70.57157244306293
6.688590336,0.9997455711654217,70.41473940513546
6.690877952,0.9998741605593842,70.25617405981467
6.693165568,1.000010969064782,70.09567568266749
6.695453184,1.000147030607094,69.93323597437929
6.6977408,1.0002740029144206,69.76888290774873
6.700028416,1.0003837711117884,69.60283853297324
6.702316032,1.000469342871273,69.43538429715373
6.70460416,1.0005254037103304,69.26691993709863
6.706891776,1.0005483333704632,69.09790019407872
6.709179392,1.0005366697050317,68.92880305671702
6.711467008,1.000491101834167,68.76013177243277
6.713754624,1.0004144462420494,68.59236331479708
6.71604224,1.0003116738949507,68.42591040246998
6.718329856,1.0001890201878298,68.26109712766511
6.720617472,1.0000544081178788,68.09814892478633
6.7229056,0.9999161663009538,67.93722424513254
6.725193216,0.9997830773270618,67.77826597686133
6.727480832,0.9996635815909521,67.62117357954435
6.729768448,0.9995652204117391,67.46566706262507
6.732056064,0.9994942009576456,67.31141352962068
6.73434368,0.9994550784717463,67.15794768341178
6.736631296,0.9994503370833139,67.00487122006048
6.738918912,0.999480338355469,66.85158662287536
6.741206528,0.9995431803721692,66.69765750752774
6.743494656,0.9996348726063222,66.54265022417039
6.745782272,0.9997497646278836,66.38611880867305
6.748069888,0.9998804671626573,66.22783486143598
6.750357504,1.000018785910684,66.06761671094525
6.75264512,1.0001561427172265,65.90542382230593
6.754932736,1.0002836976247858,65.74129472684577
6.757220352,1.0003933576921855,65.57547270756959
6.759507968,1.0004783397594879,65.40825526553512
6.761795584,1.0005331381376736,65.24003794265514
6.764083712,1.0005543155603147,65.07127131617776
6.766371328,1.0005405861782428,64.90247493865746
6.768658944,1.000492628143855,64.73411589089196
6.77094656,1.000413615873073,64.56672304444004
6.773234176,1.000308333960358,64.40064587726177
6.775521792,1.0001835245391144,64.23624802613423
6.777809408,1.0000470233194603,64.0737918752946
6.780097024,0.9999073846785989,63.913331066419154
6.782385152,0.9997734958905966,63.75486218439439
6.784672768,0.9996537212453501,63.59824092520978
6.786960384,0.999555802770037,63.44323492531236
6.789248,0.9994857106094086,63.2894587708022
6.791535616,0.9994481220780608,63.13647353390783
6.793823232,0.999445443028724,62.983814403145274
6.796110848,0.9994776993874358,62.830956886365364
6.798398464,0.9995429452623372,62.6773979536955
6.80068608,0.9996371380636371,62.52270496049433
6.802974208,0.9997543581528867,62.36648834644782
6.805261824,0.999887174139083,62.208469359901926
6.80754944,1.0000272278912812,62.04848566856034
6.809837056,1.0001656487761725,61.8864864907638
6.812124672,1.0002937592476042,61.72258358254057
6.814412288,1.0004033096292817,61.556964566759135
6.816699904,1.0004875657720533,61.389933574320494
6.81898752,1.0005410519589535,61.22195009915894
6.821275136,1.0005605098005357,61.05342773519231
6.823563264,1.0005445670202526,60.88488353528672
6.82585088,1.000494206285421,60.716840279524725
6.828138496,1.0004126313661912,60.549751866429204
6.830426112,1.0003049399777242,60.3840470853465
6.832713728,1.0001778813895421,60.22006012792765
6.835001344,1.000039410460329,60.058010430748425
6.83728896,0.9998983855446536,59.898002332842
6.839576576,0.9997636393059637,59.74001131680125
6.841864704,0.9996436933321418,59.583880976223064
6.84415232,0.999546166876163,59.42932922569969
6.846439936,0.999477188655205,59.276033722926776
6.848727552,0.9994412071490584,59.123476564940574
6.851015168,0.9994405185346563,58.97122427804474
6.853302784,0.9994750746651672,58.818744585699555
6.8555904,0.9995429309638045,58.66553560252422
6.857878016,0.999639632085667,58.51115523665283
6.860165632,0.999759214616946,58.355203000431636
6.86245376,0.999894084143007,58.19740717301615
6.864741376,1.0000358388928972,58.03764176703138
6.867028992,1.0001753769560908,57.87584203624178
6.869316608,1.000303915226005,57.71210168430915
6.871604224,1.0004134471506003,57.546634342804644
6.87389184,1.0004968695144139,57.37980415115737
6.876179456,1.0005490582840426,57.21197675933155
6.878467072,1.0005666167025666,57.04366229112006
6.880754688,1.0005483908385657,56.87537460460491
6.883042816,1.0004955645419247,56.70761252829503
6.885330432,1.0004114291865147,56.540820432724466
6.887618048,1.000301169100277,56.375483903031494
6.889905664,1.000171795021993,56.21186627235979
6.89219328,1.0000315081705144,56.050209676701456
6.894480896,0.9998891422383349,55.89063147960835
6.896768512,0.9997534923675814,55.73308056085146
6.899056128,0.9996334228804264,55.57741001699839
6.901344256,0.9995363686814898,55.42331688452423
6.903631872,0.9994685060490615,55.27043767510732
6.905919488,0.999434115358668,55.11831720016251
6.908207104,0.9994355667821532,54.96645167000782
6.91049472,0.9994725866971532,54.814324163944185
6.912782336,0.999543038894996,54.66143438356347
6.915069952,0.9996423328261332,54.507315250230256
6.917357568,0.9997643501905177,54.351603051443306
6.919645184,0.9999013038888462,54.194039724620836
6.921933312,1.0000446420426068,54.03442135837244
6.924220928,1.0001853020353595,53.87277338938076
6.926508544,1.000314351249888,53.709180083967944
6.92879616,1.0004236740174668,53.54387357971804
6.931083776,1.00050635812471,53.3771844110249
6.933371392,1.0005570371539045,53.209536944856524
6.935659008,1.0005726406366229,53.041402999523804
