freq,mag,phase
6.0,0.9999957872593118,81.54522269150053
6.008,0.9999959970620408,81.40192208246019
6.016,0.9999961969571399,81.25857912667695
6.024,0.9999963871759875,81.11519379594735
6.032,0.9999965679471802,80.97176606228516
6.04,0.9999967394965449,80.82829589792271
6.048,0.999996902047149,80.68478327531199
6.056,0.9999970558193099,80.54122816712577
6.064,0.9999972010306066,80.39763054625888
6.072,0.9999973378958893,80.25399038582927
6.08,0.9999974666272903,80.11030765917914
6.088,0.9999975874342354,79.9665823398762
6.096,0.9999977005234537,79.82281440171471
6.104,0.9999978060989894,79.67900381871665
6.112,0.9999979043622123,79.5351505651329
6.12,0.9999979955118291,79.39125461544431
6.128,0.9999980797438952,79.24731594436284
6.136,0.9999981572518257,79.10333452683277
6.144,0.9999982282264052,78.95931033803167
6.152,0.9999982928558024,78.81524335337166
6.16,0.9999983513255796,78.6711335485004
6.168,0.9999984038187041,78.52698089930234
6.176,0.9999984505155625,78.3827853818997
6.184,0.9999984915939694,78.23854697265361
6.192,0.9999985272291814,78.09426564816518
6.2,0.9999985575939094,77.94994138527669
6.208,0.9999985828583292,77.80557416107257
6.216,0.9999986031900953,77.66116395288053
6.224,0.9999986187543521,77.51671073827258
6.232,0.9999986297137479,77.3722144950662
6.24,0.9999986362284453,77.22767520132534
6.248,0.9999986384561365,77.08309283536148
6.256,0.9999986365520533,76.93846737573473
6.264,0.9999986306689823,76.79379880125481
6.272,0.9999986209572764,76.6490870909822
6.28,0.9999986075648681,76.50433222422909
6.288,0.9999985906372829,76.35953418056046
6.296,0.9999985703176532,76.2146929397951
6.304,0.9999985467467293,76.06980848200665
6.312,0.9999985200628958,75.92488078752463
6.32,0.9999984904021826,75.77990983693539
6.328,0.9999984578982805,75.63489561108318
6.336,0.9999984226825527,75.48983809107116
6.344,0.9999983848840507,75.3447372582624
6.352,0.999998344629527,75.19959309428077
6.36,0.9999983020434489,75.05440558101208
6.368,0.9999982572480136,74.90917470060495
6.376,0.9999982103631607,74.76390043547187
6.384,0.9999981615065882,74.61858276829005
6.392,0.9999981107937654,74.47322168200253
6.4,0.9999980583379482,74.327817159819
6.408,0.9999980042501927,74.18236918521686
6.416,0.999997948639371,74.03687774194208
6.424,0.9999978916121848,73.89134281401016
6.432,0.9999978332731798,73.74576438570712
6.44,0.9999977737247623,73.60014244159034
6.448,0.9999977130672121,73.45447696648952
6.456,0.9999976513986989,73.3087679455076
6.464,0.999997588815297,73.16301536402163
6.472,0.9999975254109996,73.0172192076837
6.48,0.9999974612777349,72.87137946242177
6.4879999999999995,0.9999973965053821,72.7254961144407
6.496,0.9999973311817847,72.57956915022288
6.504,0.9999972653927682,72.43359855652939
6.5120000000000005,0.9999971992221545,72.28758432040057
6.52,0.9999971327517772,72.14152642915717
6.5280000000000005,0.9999970660614986,71.99542487040092
6.536,0.9999969992292244,71.84927963201558
6.5440000000000005,0.9999969323309196,71.7030907021676
6.552,0.9999968654406253,71.55685806930714
6.5600000000000005,0.9999967986304742,71.41058172216863
6.568,0.9999967319707062,71.26426164977191
6.5760000000000005,0.9999966655296855,71.11789784142265
6.584,0.9999965993739162,70.9714902867135
6.592,0.9999965335680587,70.8250389755246
6.6,0.9999964681749467,70.67854389802456
6.608,0.9999964032556027,70.53200504467105
6.616,0.9999963388692551,70.3854224062117
6.624,0.9999962750733548,70.23879597368482
6.632,0.9999962119235916,70.09212573842007
6.64,0.9999961494739111,69.94541169203926
6.648,0.9999960877765321,69.79865382645711
6.656,0.9999960268819614,69.65185213388189
6.664,0.9999959668390137,69.50500660681614
6.672,0.999995907694826,69.35811723805746
6.68,0.9999958494948762,69.21118402069906
6.688,0.9999957922829993,69.06420694813058
6.696,0.9999957361014059,68.91718601403865
6.704,0.9999956809906969,68.77012121240763
6.712,0.999995626989884,68.62301253752028
6.72,0.9999955741364042,68.47585998395829
6.728,0.9999955224661391,68.32866354660307
6.736,0.9999954720134313,68.18142322063628
6.744,0.9999954228111025,68.03413900154042
6.752,0.9999953748904705,67.88681088509959
6.76,0.9999953282813675,67.73943886739993
6.768,0.9999952830121566,67.59202294483025
6.776,0.9999952391097507,67.4445631140827
6.784,0.9999951965996299,67.2970593721532
6.792,0.9999951555058594,67.14951171634216
6.8,0.999995115851106,67.00192014425485
6.808,0.999995077656658,66.8542846538021
6.816,0.9999950409424418,66.70660524320071
6.824,0.9999950057270405,66.5588819109741
6.832,0.9999949720277109,66.41111465595269
6.84,0.999994939860403,66.26330347727449
6.848,0.9999949092397769,66.11544837438552
6.856,0.9999948801792209,65.96754934704035
6.864,0.9999948526908712,65.81960639530256
6.872,0.9999948267856268,65.67161951954515
6.88,0.9999948024731717,65.52358872045109
6.888,0.99999477976199,65.37551399901359
6.896,0.9999947586593856,65.22739535653675
6.904,0.9999947391714996,65.07923279463574
6.912,0.9999947213033299,64.93102631523742
6.92,0.9999947050587481,64.78277592058058
6.928,0.9999946904405187,64.63448161321637
6.936,0.9999946774503162,64.48614339600874
6.944,0.9999946660887458,64.3377612721347
6.952,0.999994656355359,64.18933524508473
6.96,0.9999946482486743,64.04086531866312
6.968,0.9999946417661937,63.89235149698826
6.976,0.9999946369044221,63.74379378449303
6.984,0.9999946336588865,63.595192185924994
6.992,0.9999946320241523,63.44654670634682
7.0,0.999994631993843,63.2978573511365
7.008,0.999994633560659,63.14912412598758
7.016,0.999994636716395,63.000347036909545
7.024,0.9999946414519586,62.85152609022792
7.032,0.9999946477573897,62.70266129258462
7.04,0.9999946556218774,62.55375265093815
7.048,0.9999946650337795,62.404800172563775
7.056,0.99999467598064,62.25580386505379
7.064,0.9999946884492081,62.106763736317646
7.072,0.9999947024254565,61.9576797945822
7.08,0.9999947178945994,61.808552048391796
7.088,0.9999947348411107,61.65938050660852
7.096,0.9999947532487428,61.51016517841228
7.104,0.999994773100544,61.36090607330094
7.112,0.999994794378878,61.211603201090504
7.12,0.9999948170654411,61.06225657191512
7.128,0.9999948411412805,60.91286619622727
7.136,0.9999948665868122,60.76343208479782
7.144,0.9999948933818407,60.61395424871608
7.152,0.9999949215055739,60.464432699389874
7.16,0.9999949509366447,60.31486744854565
7.168,0.9999949816531266,60.165258508228405
7.176,0.9999950136325525,60.01560589080179
7.184,0.9999950468519319,59.86590960894811
7.192,0.9999950812877701,59.71616967566831
7.2,0.9999951169160849,59.566386104281975
7.208,0.9999951537124244,59.41655890842731
7.216,0.999995191651885,59.266688102061124
7.224,0.9999952307091287,59.116773699458705
7.232,0.9999952708584009,58.96681571521385
7.24,0.9999953120735486,58.81681416423877
7.248,0.9999953543280359,58.66676906176398
7.256,0.9999953975949641,58.51668042333825
7.264,0.9999954418470861,58.36654826482844
7.272,0.9999954870568253,58.21637260241943
7.28,0.999995533196293,58.06615345261397
7.288,0.9999955802373045,57.91589083223252
7.296,0.9999956281513971,57.76558475841311
7.304,0.9999956769098461,57.615235248611256
7.312,0.9999957264836814,57.464842320599566
7.32,0.9999957768437059,57.3144059924678
7.328,0.9999958279605107,57.16392628262251
7.336,0.9999958798044919,57.01340320978682
7.344,0.9999959323458678,56.86283679300033
7.352,0.9999959855546939,56.71222705161872
7.36,0.9999960394008808,56.56157400531363
7.368,0.9999960938542092,56.4108776740723
7.376,0.9999961488843465,56.26013807819735
7.384,0.9999962044608628,56.10935523830649
7.392,0.999996260553246,55.958529175332195
7.4,0.9999963171309193,55.807659910521416
7.4079999999999995,0.9999963741632546,55.6567474654353
7.416,0.9999964316195895,55.50579186194871
7.4239999999999995,0.9999964894692426,55.35479312225014
7.432,0.9999965476815283,55.203751268841046
7.4399999999999995,0.9999966062257722,55.052666324535785
7.448,0.9999966650713256,54.90153831246098
7.4559999999999995,0.9999967241875822,54.750367256055306
7.464,0.9999967835439905,54.599153179068985
7.4719999999999995,0.9999968431100695,54.44789610556351
7.48,0.9999969028554243,54.29659605991094
7.4879999999999995,0.9999969627497582,54.14525306679389
7.496,0.9999970227628887,53.99386715120464
7.504,0.9999970828647614,53.842438338445085
7.5120000000000005,0.9999971430254629,53.69096665412585
7.52,0.9999972032152358,53.53945212416628
7.5280000000000005,0.9999972634044912,53.387894774793516
7.536,0.9999973235638238,53.23629463254231
7.5440000000000005,0.9999973836640234,53.084651724254286
7.552,0.9999974436760894,52.93296607707769
7.5600000000000005,0.9999975035712433,52.78123771846651
7.568,0.999997563320941,52.629466676180314
7.5760000000000005,0.9999976228968875,52.47765297828336
7.584,0.999997682271047,52.32579665314431
7.5920000000000005,0.9999977414156562,52.17389772943544
7.6,0.9999978003032379,52.021956236132255
7.6080000000000005,0.9999978589066102,51.869972202512706
7.616,0.9999979171989011,51.717945658156815
7.6240000000000006,0.9999979751535583,51.56587663294579
7.632,0.9999980327443615,51.41376515706171
7.640000000000001,0.999998089945434,51.26161126098665
7.648,0.9999981467312533,51.10941497550217
7.656000000000001,0.9999982030766612,50.957176331688636
7.664,0.9999982589568772,50.8048953609246
7.672,0.9999983143475055,50.65257209488608
7.68,0.9999983692245493,50.5002065655459
7.688,0.9999984235644175,50.347798805173085
7.696,0.9999984773439364,50.195348846332045
7.704,0.99999853054036,50.04285672188202
7.712,0.9999985831313775,49.89032246497623
7.72,0.9999986350951254,49.73774610906128
7.728,0.9999986864101945,49.58512768787637
7.736,0.9999987370556398,49.432467235452634
7.744,0.9999987870109894,49.27976478611227
7.752,0.9999988362562526,49.12702037446798
7.76,0.9999988847719291,48.97423403542205
7.768,0.9999989325390153,48.82140580416574
7.776,0.9999989795390152,48.66853571617838
7.784,0.999999025753945,48.51562380722669
7.792,0.9999990711663431,48.362670113363976
7.8,0.9999991157592758,48.20967467092934
7.808,0.999999159516345,48.056637516546886
7.816,0.9999992024216949,47.90355868712493
7.824,0.9999992444600188,47.750438219855205
7.832,0.9999992856165658,47.59727615221204
7.84,0.9999993258771456,47.444072521951526
7.848,0.9999993652281368,47.29082736711074
7.856,0.9999994036564903,47.13754072600688
7.864,0.9999994411497365,46.98421263723645
7.872,0.9999994776959896,46.83084313967443
7.88,0.9999995132839529,46.6774322724734
7.888,0.9999995479029236,46.52398007506275
7.896,0.9999995815427979,46.370486587147816
7.904,0.9999996141940748,46.21695184870894
7.912,0.99999964584786,46.06337590000075
7.92,0.9999996764958708,45.909758781551204
7.928,0.9999997061304388,45.75610053416076
7.936,0.9999997347445136,45.60240119890146
7.944,0.999999762331666,45.44866081711612
7.952,0.9999997888860913,45.29487943041746
7.96,0.9999998144026115,45.14105708068712
7.968,0.9999998388766779,44.98719381007489
7.976,0.9999998623043742,44.83328966099779
7.984,0.9999998846824165,44.679344676139166
7.992,0.9999999060081574,44.52535889844779
8.0,0.9999999262795858,44.37133237113704
8.008,0.9999999454953293,44.21726513768394
8.016,0.9999999636546546,44.063157241828215
8.024000000000001,0.9999999807574683,43.90900872757157
8.032,0.9999999968043183,43.75481963917667
8.04,1.0,43.60059002116619
8.048,0.9999999999999999,43.446319918322025
8.056000000000001,1.0,43.29200937568436
8.064,0.9999999999999999,43.13765843855078
8.072,1.0,42.983267152475314
8.08,1.0,42.82883556326753
8.088000000000001,1.0,42.674363716991785
8.096,0.9999999999999999,42.51985165996618
8.104,1.0,42.365299438761646
8.112,0.9999999999999998,42.21070710020112
8.120000000000001,1.0,42.056074691358646
8.128,1.0,41.9014022595585
8.136,1.0,41.746689852374196
8.144,0.9999999999999999,41.59193751762762
8.152000000000001,1.0,41.43714530338825
8.16,1.0,41.28231325797221
8.168,1.0,41.12744142994129
8.176,1.0,40.97252986810212
8.184000000000001,1.0,40.81757862150538
8.192,1.0,40.66258773944484
8.2,0.9999999999999999,40.50755727145644
8.208,1.0,40.35248726731744
8.216000000000001,0.9999999999999999,40.197377777045695
8.224,1.0000000000000002,40.0422288508986
8.232,1.0,39.887040539372315
8.24,0.9999999999999999,39.731812893200846
8.248000000000001,1.0,39.576545963355294
8.256,1.0,39.42123980104304
8.264,1.0,39.26589445770663
8.272,1.0000000000000002,39.11050998502321
8.280000000000001,1.0000000000000002,38.95508643490361
8.288,0.9999999892466431,38.79962385949153
8.296,0.9999999748785257,38.644122311162675
8.304,0.9999999598428957,38.48858184252384
8.312,0.9999999441612778,38.333002506412434
8.32,0.9999999278557048,38.177384355895235
8.328,0.9999999109487099,38.02172744426796
8.336,0.9999998934633194,37.866031825054215
8.344,0.9999998754230448,37.71029755200489
8.352,0.9999998568518742,37.5545246790972
8.36,0.9999998377742634,37.39871326053411
8.368,0.9999998182151293,37.24286335074337
8.376,0.9999997981998386,37.08697500437693
8.384,0.999999777754201,36.93104827631002
8.392,0.9999997569044589,36.77508322164059
8.4,0.9999997356772787,36.619079895688344
8.408,0.9999997140997411,36.46303835399426
8.416,0.999999692199332,36.30695865231965
8.424,0.9999996700039321,36.15084084664561
8.432,0.9999996475418079,35.99468499317214
8.44,0.9999996248416005,35.83849114831771
8.448,0.999999601932317,35.68225936871818
8.456,0.9999995788433181,35.525989711226615
8.464,0.9999995556043095,35.369682232912055
8.472,0.9999995322453307,35.21333699105941
8.48,0.9999995087967437,35.05695404316833
8.488,0.9999994852892224,34.90053344695288
8.496,0.999999461753743,34.74407526034071
8.504,0.9999994382215701,34.587579541472635
8.512,0.9999994147242476,34.43104634870168
8.52,0.9999993912935871,34.2744757405929
8.528,0.9999993679616553,34.11786777592237
8.536,0.9999993447607639,33.96122251367697
8.544,0.9999993217234565,33.804540013053455
8.552,0.999999298882498,33.647820333458206
8.56,0.9999992762708617,33.491063534506345
8.568,0.999999253921718,33.33426967602158
8.576,0.9999992318684224,33.17743881803523
8.584,0.9999992101445024,33.020571020786115
8.592,0.9999991887836462,32.86366634471966
8.6,0.99999916781969,32.706724850487724
8.608,0.9999991472866055,32.5497465989478
8.616,0.9999991272184882,32.39273165116283
8.624,0.9999991076495434,32.235680068400434
8.632,0.9999990886140749,32.0785919121327
8.64,0.9999990701464717,31.921467244035505
8.648,0.9999990522811953,31.76430612598834
8.656,0.9999990350527679,31.60710862007354
8.664,0.9999990184957573,31.449874788576214
8.672,0.9999990026447669,31.292604693983524
8.68,0.999998987534421,31.135298398984567
8.688,0.999998973199352,30.977955966469686
8.696,0.9999989596741887,30.820577459530437
8.704,0.9999989469935409,30.66316294145888
8.712,0.9999989351919892,30.50571247574752
8.72,0.9999989243040703,30.348226126088697
8.728,0.9999989143642646,30.190703956374502
8.736,0.9999989054069824,30.033146030696244
8.744,0.9999988974665522,29.875552413344334
8.752,0.9999988905772064,29.71792316880775
8.76,0.999998884773069,29.56025836177404
8.768,0.9999988800881426,29.40255805712872
8.776,0.9999988765562946,29.244822319955343
8.784,0.999998874211246,29.087051215534917
8.792,0.9999988730865557,28.929244809345967
8.8,0.999998873215611,28.771403167063994
8.808,0.9999988746316115,28.613526354561596
8.815999999999999,0.9999988773675582,28.4556144379079
8.824,0.9999988814562403,28.297667483368595
8.832,0.9999988869302218,28.139685557405713
8.84,0.9999988938218298,27.981668726677423
8.847999999999999,0.999998902163141,27.823617058037787
8.856,0.9999989119859699,27.665530618536657
8.864,0.999998923321855,27.507409475419617
8.872,0.9999989362020476,27.349253696127775
8.879999999999999,0.9999989506574989,27.191063348297543
8.888,0.999998966718848,27.032838499760597
8.896,0.9999989844164086,26.87457921854387
8.904,0.9999990037801583,26.716285572869342
8.911999999999999,0.9999990248397252,26.557957631153926
8.92,0.9999990476243773,26.399595462009405
8.928,0.9999990721630092,26.24119913424251
8.936,0.9999990984841315,26.082768716854694
8.943999999999999,0.999999126615858,25.924304279042133
8.952,0.9999991565858947,25.765805890195644
8.96,0.9999991884215296,25.607273619900795
8.968,0.9999992221496184,25.448707537937818
8.975999999999999,0.999999257796576,25.290107714281476
8.984,0.9999992953883643,25.13147421910116
8.992,0.9999993349504807,24.972807122760987
9.0,0.9999993765079486,24.814106495819722
9.008,0.9999994200853053,24.655372409030704
9.016,0.9999994657065924,24.49660493334202
9.024000000000001,0.9999995133953448,24.337804139896544
9.032,0.9999995631745809,24.178970100031957
9.04,0.9999996150667916,24.020102885280725
9.048,0.9999996690939318,23.861202567370214
9.056000000000001,0.9999997252774089,23.702269218222863
9.064,0.9999997836380736,23.543302909956164
9.072,0.9999998441962116,23.384303714882705
9.08,0.9999999069715323,23.225271705510288
9.088000000000001,0.9999999719831613,23.066206954542164
9.096,0.9999999999999999,22.907109534877023
9.104,1.0,22.747979519609043
9.112,0.9999999999999999,22.588816982028078
9.120000000000001,1.0,22.429621995619883
9.128,1.0,22.27039463406614
9.136,1.0,22.11113497124453
9.144,1.0,21.951843081228976
9.152000000000001,0.9999999999999999,21.792519038289814
9.16,1.0,21.633162916893934
9.168,0.9999999999999999,21.473774791704802
9.176,1.0,21.314354737582732
9.184000000000001,1.0,21.154902829585136
9.192,1.0,20.99541914296659
9.2,1.0,20.83590375317895
9.208,1.0,20.67635673587164
9.216000000000001,0.9999999999999999,20.51677816689182
9.224,0.9999999999999999,20.357168122284612
9.232,1.0,20.197526678293116
9.24,0.9999999999999999,20.03785391135874
9.248000000000001,0.9999999999999998,19.878149898121446
9.256,1.0,19.718414715419865
9.264,1.0,19.55864844029144
9.272,1.0,19.398851149972707
9.280000000000001,0.9999999999999999,19.239022921899537
9.288,1.0,19.079163833707316
9.296,1.0,18.919273963231035
9.304,1.0,18.759353388505602
9.312000000000001,1.0,18.599402187766117
9.32,1.0,18.43942043944797
9.328,1.0,18.27940822218706
9.336,1.0,18.119365614819998
9.344,1.0,17.959292696384452
9.352,0.9999999999999999,17.799189546119127
9.36,1.0,17.639056243464236
9.368,1.0,17.478892868061415
9.376,1.0,17.318699499754246
9.384,1.0000000000000002,17.15847621858815
9.392,1.0,16.998223104810876
9.4,1.0,16.83794023887246
9.408,1.0,16.677627701425642
9.416,0.9999999999999999,16.517285573325843
9.424,1.0,16.356913935631585
9.432,1.0,16.196512869604472
9.44,0.9999999999999999,16.036082456709604
9.448,0.9999999999999999,15.875622778615488
9.456,0.9999999999999998,15.715133917194542
9.464,1.0,15.554615954522944
9.472,1.0,15.394068972881117
9.48,0.9999999999999999,15.23349305475362
9.488,0.9999999999999998,15.072888282829595
9.496,1.0,14.912254740002615
9.504,0.9999999999999999,14.751592509371179
9.512,1.0,14.590901674238518
9.52,1.0,14.430182318113113
9.528,1.0,14.269434524708448
9.536,0.9999999999999999,14.108658377943506
9.544,1.0,13.94785396194259
9.552,0.9999999999999999,13.787021361035716
9.56,0.9999999999999999,13.626160659758478
9.568,1.0,13.465271942852398
9.576,0.9999999999999999,13.304355295264791
9.584,0.9999999999999999,13.143410802149123
9.592,0.9999999999999999,12.982438548864799
9.6,1.0,12.821438620977567
9.608,1.0,12.660411104259282
9.616,0.9999999999999998,12.499356084688237
9.624,1.0,12.33827364844899
9.632,1.0,12.177163881932644
9.64,1.0,12.01602687173663
9.648,1.0,11.854862704665011
9.656,1.0,11.693671467728242
9.664,0.9999999999999999,11.532453248143428
9.672,1.0,11.371208133334068
9.68,1.0,11.209936210930357
9.688,0.9999999999999999,11.048637568768823
9.696,1.0,10.887312294892645
9.704,1.0,10.725960477551308
9.712,1.0,10.564582205200836
9.72,1.0,10.403177566503453
9.728,1.0,10.241746650327821
9.736,0.9999999999999999,10.08028954574865
9.744,1.0,9.918806342046901
9.752,1.0,9.757297128709407
9.76,1.0,9.595761995429042
9.768,1.0,9.434201032104324
9.776,1.0,9.27261432883953
9.784,1.0,9.111001975944312
9.792,1.0,8.94936406393378
9.8,0.9999999999999999,8.78770068352808
9.808,0.9999999999999999,8.626011925652469
9.816,0.9999999999999999,8.464297881436847
9.824,1.0,8.30255864221584
9.832,0.9999999999999998,8.140794299528284
