freq,mag,phase
6.0,0.9999934154812821,110.96034522845561
6.008,0.9999937390784518,110.85282867941874
6.016,0.999994054820353,110.745248631115
6.024,0.9999943628019531,110.63760499873274
6.032,0.9999946631176057,110.52989769752882
6.04,0.9999949558610529,110.42212664282978
6.048,0.999995241125427,110.3142917500324
6.056,0.9999955190032508,110.20639293460466
6.064,0.99999578958644,110.09843011208669
6.072,0.9999960529663043,109.99040319809136
6.08,0.9999963092335479,109.88231210830536
6.088,0.9999965584782727,109.77415675848991
6.096,0.9999968007899778,109.66593706448172
6.104,0.9999970362575616,109.55765294219376
6.112,0.9999972649693246,109.44930430761612
6.12,0.9999974870129679,109.34089107681697
6.128,0.9999977024755969,109.23241316594336
6.136,0.9999979114437227,109.12387049122205
6.144,0.9999981140032621,109.01526296896047
6.152,0.9999983102395397,108.90659051554755
6.16,0.9999985002372895,108.79785304745461
6.168,0.9999986840806564,108.68905048123624
6.176,0.9999988618531976,108.58018273353116
6.184,0.9999990336378832,108.47124972106317
6.192,0.999999199517099,108.36225136064205
6.2,0.9999993595726469,108.25318756916431
6.208,0.9999995138857466,108.1440582636143
6.216,0.9999996625370371,108.03486336106496
6.224,0.9999998056065788,107.92560277867881
6.232,0.9999999431738531,107.81627643370877
6.24,1.0,107.70688424349918
6.248,1.0,107.59742612548666
6.256,1.0,107.48790199720102
6.264,1.0,107.37831177626623
6.272,1.0,107.26865538040123
6.28,1.0,107.15893272742106
6.288,0.9999999999999999,107.04914373523758
6.296,1.0,106.93928832186057
6.304,1.0,106.82936640539853
6.312,1.0,106.71937790405977
6.32,1.0,106.60932273615323
6.328,1.0,106.49920082008951
6.336,1.0,106.38901207438175
6.344,1.0,106.27875641764669
6.352,0.9999999999999999,106.1684337686055
6.36,1.0,106.05804404608482
6.368,1.0,105.94758716901775
6.376,1.0,105.8370630564448
6.384,1.0,105.7264716275148
6.392,1.0,105.6158128014859
6.4,1.0,105.50508649772665
6.408,0.9999999999999999,105.39429263571688
6.416,1.0,105.28343113504869
6.424,1.0,105.17250191542745
6.432,0.9999999999999999,105.06150489667284
6.44,1.0,104.9504399987198
6.448,1.0,104.83930714161954
6.456,1.0,104.72810624554053
6.464,1.0,104.61683723076953
6.472,0.9999999999999999,104.5055000177126
6.48,1.0,104.39409452689611
6.4879999999999995,0.9999999999999999,104.28262067896772
6.496,1.0,104.17107839469739
6.504,0.9999999999999999,104.0594675949786
6.5120000000000005,1.0,103.94778820082902
6.52,1.0,103.8360401333919
6.5280000000000005,1.0,103.72422331393686
6.536,0.9999999999999999,103.61233766386106
6.5440000000000005,0.9999999999999999,103.5003831046901
6.552,0.9999999999999999,103.3883595580793
6.5600000000000005,1.0,103.27626694581447
6.568,1.0,103.1641051898132
6.5760000000000005,1.0,103.0518742121257
6.584,1.0,102.93957393493608
6.592,1.0,102.82720428056321
6.6,1.0,102.71476517146192
6.608,0.9999999999999999,102.602256530224
6.616,0.9999999999999998,102.48967827957928
6.624,1.0,102.37703034239676
6.632,0.9999999999999999,102.26431264168562
6.64,1.0,102.1515251005963
6.648,0.9999999999999999,102.03866764242166
6.656,1.0,101.92574019059798
6.664,1.0,101.81274266870612
6.672,0.9999999999999999,101.69967500047258
6.68,1.0,101.58653710977059
6.688,1.0,101.47332892062126
6.696,1.0,101.36005035719461
6.704,1.0,101.2467013438108
6.712,0.9999999999999999,101.13328180494106
6.72,1.0,101.01979166520903
6.728,0.9999999999999998,100.90623084939168
6.736,0.9999999999999998,100.79259928242054
6.744,1.0,100.67889688938283
6.752,0.9999999999999999,100.56512359552251
6.76,1.0,100.4512793262415
6.768,1.0,100.33736400710079
6.776,0.9999999999999998,100.22337756382156
6.784,0.9999999999999999,100.10931992228632
6.792,0.9999999999999999,99.9951910085401
6.8,0.9999999512282537,99.88099074879156
6.808,0.9999998658935086,99.76671906941418
6.816,0.9999997794010821,99.65237589694736
6.824,0.9999996917919993,99.53796115809766
6.832,0.9999996031068265,99.42347477973988
6.84,0.9999995133856739,99.30891668891829
6.848,0.9999994226681976,99.19428681284779
6.856,0.9999993309936007,99.07958507891506
6.864,0.9999992384006351,98.96481141467976
6.872,0.9999991449276039,98.8499657478757
6.88,0.9999990506123623,98.73504800641201
6.888,0.9999989554923193,98.6200581183744
6.896,0.9999988596044413,98.50499601202627
6.904,0.9999987629852513,98.38986161580989
6.912,0.9999986656708323,98.27465485834773
6.92,0.9999985676968289,98.15937566844352
6.928,0.9999984690984486,98.04402397508352
6.936,0.9999983699104632,97.92859970743771
6.944,0.9999982701672124,97.81310279486105
6.952,0.9999981699026038,97.69753316689463
6.96,0.9999980691501155,97.58189075326689
6.968,0.9999979679427972,97.46617548389492
6.976,0.9999978663132734,97.3503872888856
6.984,0.9999977642937432,97.23452609853689
6.992,0.9999976619159844,97.118591843339
7.0,0.9999975592113536,97.0025844539757
7.008,0.9999974562107885,96.8865038613255
7.016,0.9999973529448097,96.77034999646291
7.024,0.9999972494435235,96.65412279065971
7.032,0.9999971457366215,96.53782217538615
7.04,0.9999970418533851,96.42144808231227
7.048,0.9999969378226851,96.30500044330907
7.056,0.9999968336729852,96.18847919044987
7.064,0.9999967294323423,96.07188425601149
7.072,0.9999966251284099,95.95521557247551
7.08,0.9999965207884391,95.83847307252967
7.088,0.9999964164392805,95.72165668906898
7.096,0.9999963121073853,95.60476635519704
7.104,0.99999620781881,95.48780200422743
7.112,0.9999961035992142,95.37076356968483
7.12,0.9999959994738659,95.25365098530638
7.128,0.9999958954676412,95.13646418504307
7.136,0.9999957916050278,95.01920310306079
7.144,0.9999956879101256,94.90186767374188
7.152,0.9999955844066484,94.78445783168627
7.16,0.9999954811179281,94.66697351171283
7.168,0.9999953780669134,94.5494146488607
7.176,0.9999952752761749,94.43178117839055
7.184,0.9999951727679028,94.31407303578592
7.192,0.9999950705639141,94.19629015675454
7.2,0.9999949686856497,94.07843247722965
7.208,0.9999948671541798,93.96049993337127
7.216,0.9999947659902039,93.84249246156763
7.224,0.9999946652140523,93.72440999843636
7.232,0.9999945648456905,93.60625248082596
7.24,0.9999944649047184,93.48801984581704
7.248,0.9999943654103738,93.36971203072368
7.256,0.9999942663815334,93.25132897309479
7.264,0.9999941678367166,93.13287061071544
7.272,0.9999940697940843,93.01433688160824
7.28,0.9999939722714437,92.8957277240346
7.288,0.999993875286249,92.77704307649617
7.296,0.9999937788556031,92.6582828777362
7.304,0.9999936829962606,92.5394470667408
7.312,0.9999935877246289,92.42053558274043
7.32,0.9999934930567698,92.30154836521119
7.328,0.9999933990084026,92.18248535387617
7.336,0.9999933055949056,92.06334648870693
7.344,0.9999932128313174,91.94413170992475
7.352,0.9999931207323399,91.82484095800203
7.36,0.9999930293123399,91.70547417366377
7.368,0.9999929385853504,91.58603129788884
7.376,0.9999928485650735,91.46651227191143
7.384,0.9999927592648825,91.3469170372224
7.392,0.9999926706978226,91.22724553557073
7.4,0.9999925828766139,91.10749770896484
7.4079999999999995,0.9999924958136539,90.98767349967407
7.416,0.9999924095210176,90.86777285022994
7.4239999999999995,0.9999923240104622,90.74779570342783
7.432,0.9999922392934268,90.62774200232802
7.4399999999999995,0.9999921553810349,90.50761169025743
7.448,0.9999920722840969,90.38740471081083
7.4559999999999995,0.9999919900131128,90.26712100785237
7.464,0.9999919085782718,90.14676052551687
7.4719999999999995,0.9999918279894574,90.02632320821142
7.48,0.9999917482562468,89.90580900061661
7.4879999999999995,0.999991669387915,89.78521784768817
7.496,0.9999915913934344,89.66454969465813
7.504,0.9999915142814796,89.5438044870366
7.5120000000000005,0.9999914380604275,89.42298217061283
7.52,0.9999913627383601,89.30208269145697
7.5280000000000005,0.9999912883230663,89.18110599592127
7.536,0.9999912148220438,89.06005203064171
7.5440000000000005,0.9999911422425016,88.93892074253931
7.552,0.9999910705913617,88.81771207882169
7.5600000000000005,0.9999909998752614,88.69642598698438
7.568,0.9999909301005551,88.57506241481246
7.5760000000000005,0.9999908612733159,88.45362131038185
7.584,0.9999907933993394,88.33210262206087
7.5920000000000005,0.9999907264841436,88.21050629851165
7.6,0.9999906605329717,88.08883228869165
7.6080000000000005,0.9999905955507954,87.96708054185505
7.616,0.9999905315423153,87.84525100755432
7.6240000000000006,0.9999904685119638,87.72334363564158
7.632,0.9999904064639065,87.60135837627017
7.640000000000001,0.9999903454020455,87.4792951798961
7.648,0.9999902853300202,87.35715399727948
7.656000000000001,0.9999902262512105,87.23493477948608
7.664,0.9999901681687376,87.1126374778888
7.672,0.9999901110854672,86.99026204416904
7.68,0.9999900550040112,86.86780843031842
7.688,0.9999899999267294,86.74527658864005
7.696,0.9999899458557324,86.62266647175014
7.704,0.9999898927928829,86.49997803257949
7.712,0.9999898407397982,86.37721122437496
7.72,0.9999897896978526,86.25436600070097
7.728,0.9999897396681784,86.13144231544105
7.736,0.9999896906516694,86.00844012279929
7.744,0.9999896426489822,85.88535937730188
7.752,0.999989595660538,85.76220003379862
7.76,0.9999895496865255,85.63896204746442
7.768,0.9999895047269032,85.51564537380084
7.776,0.9999894607813995,85.39224996863757
7.784,0.9999894178495181,85.26877578813398
7.792,0.9999893759305368,85.14522278878064
7.8,0.9999893350235118,85.02159092740084
7.808,0.9999892951272793,84.89788016115206
7.816,0.9999892562404569,84.77409044752763
7.824,0.9999892183614467,84.65022174435812
7.832,0.9999891814884367,84.52627400981297
7.84,0.9999891456194037,84.40224720240194
7.848,0.9999891107521145,84.27814128097673
7.856,0.9999890768841285,84.15395620473248
7.864,0.9999890440128003,84.02969193320929
7.872,0.999989012135281,83.90534842629377
7.88,0.9999889812485203,83.78092564422062
7.888,0.9999889513492695,83.65642354757414
7.896,0.9999889224340835,83.53184209728977
7.904,0.9999888944993218,83.4071812546557
7.912,0.9999888675411519,83.28244098131431
7.92,0.9999888415555507,83.15762123926383
7.928,0.9999888165383074,83.03272199085986
7.936,0.9999887924850246,82.90774319881687
7.944,0.9999887693911214,82.78268482620985
7.952,0.999988747251835,82.65754683647579
7.96,0.999988726062223,82.53232919341528
7.968,0.9999887058171656,82.40703186119408
7.976,0.9999886865113674,82.28165480434468
7.984,0.9999886681393603,82.15619798776781
7.992,0.9999886506955054,82.03066137673407
8.0,0.9999886341739936,81.90504493688549
8.008,0.9999886185688509,81.77934863423708
8.016,0.9999886038739376,81.65357243517835
8.024000000000001,0.9999885900829519,81.52771630647506
8.032,0.9999885771894318,81.40178021527058
8.04,0.9999885651867574,81.27576412908758
8.048,0.9999885540681523,81.14966801582956
8.056000000000001,0.9999885438266873,81.0234918437825
8.064,0.9999885344552806,80.89723558161639
8.072,0.9999885259467017,80.77089919838673
8.08,0.9999885182935722,80.64448266353625
8.088000000000001,0.999988511488369,80.5179859468964
8.096,0.9999885055234259,80.39140901868906
8.104,0.9999885003909358,80.26475184952787
8.112,0.9999884960829533,80.13801441042006
8.120000000000001,0.9999884925913962,80.01119667276795
8.128,0.9999884899080481,79.88429860837054
8.136,0.9999884880245602,79.75732018942504
8.144,0.9999884869324538,79.63026138852851
8.152000000000001,0.9999884866231227,79.50312217867955
8.16,0.999988487087835,79.37590253327969
8.168,0.9999884883177347,79.24860242613512
8.176,0.9999884903038447,79.12122183145819
8.184000000000001,0.9999884930370692,78.9937607238691
8.192,0.9999884965081945,78.8662190783975
8.2,0.9999885007078929,78.73859687048397
8.208,0.9999885056267235,78.6108940759816
8.216000000000001,0.9999885112551347,78.4831106711578
8.224,0.9999885175834667,78.3552466326957
8.232,0.9999885246019541,78.22730193769578
8.24,0.999988532300726,78.09927656367749
8.248000000000001,0.999988540669811,77.97117048858087
8.256,0.9999885496991372,77.84298369076812
8.264,0.9999885593785354,77.71471614902522
8.272,0.9999885696977402,77.58636784256336
8.280000000000001,0.9999885806463942,77.45793875102092
8.288,0.9999885922140478,77.32942885446468
8.296,0.9999886043901628,77.20083813339158
8.304,0.999988617164114,77.07216656873032
8.312,0.9999886305251922,76.94341414184304
8.32,0.9999886444626047,76.81458083452665
8.328,0.9999886589654788,76.68566662901479
8.336,0.999988674022864,76.55667150797909
8.344,0.9999886896237326,76.42759545453104
8.352,0.9999887057569846,76.29843845222341
8.36,0.9999887224114467,76.16920048505196
8.368,0.9999887395758769,76.03988153745689
8.376,0.9999887572389651,75.91048159432466
8.384,0.999988775389336,75.78100064098938
8.392,0.9999887940155514,75.65143866323456
8.4,0.9999888131061115,75.52179564729454
8.408,0.9999888326494576,75.39207157985632
8.416,0.9999888526339747,75.26226644806088
8.424,0.9999888730479927,75.13238023950507
8.432,0.9999888938797887,75.00241294224291
8.44,0.9999889151175897,74.87236454478746
8.448,0.9999889367495747,74.74223503611216
8.456,0.9999889587638755,74.61202440565268
8.464,0.999988981148581,74.48173264330825
8.472,0.9999890038917372,74.3513597394435
8.48,0.9999890269813505,74.22090568488981
8.488,0.9999890504053904,74.09037047094718
8.496,0.9999890741517896,73.95975408938554
8.504,0.999989098208448,73.82905653244653
8.512,0.9999891225632339,73.69827779284499
8.52,0.999989147203986,73.5674178637706
8.528,0.9999891721185167,73.43647673888941
8.536,0.9999891972946128,73.30545441234557
8.544,0.9999892227200373,73.17435087876262
8.552,0.9999892483825338,73.04316613324546
8.56,0.9999892742698262,72.91190017138159
8.568,0.9999893003696213,72.7805529892429
8.576,0.9999893266696125,72.6491245833871
8.584,0.9999893531574797,72.51761495085951
8.592,0.9999893798208924,72.38602408919434
8.6,0.9999894066475125,72.25435199641656
8.608,0.9999894336249937,72.12259867104326
8.616,0.9999894607409876,71.99076411208536
8.624,0.9999894879831428,71.85884831904905
8.632,0.9999895153391068,71.72685129193752
8.64,0.9999895427965304,71.59477303125232
8.648,0.9999895703430679,71.46261353799518
8.656,0.999989597966379,71.3303728136693
8.664,0.9999896256541324,71.19805086028116
8.672,0.9999896533940067,71.06564768034184
8.68,0.9999896811736918,70.93316327686885
8.688,0.999989708980893,70.8005976533874
8.696,0.999989736803331,70.66795081393218
8.704,0.999989764628745,70.53522276304875
8.712,0.9999897924448947,70.40241350579525
8.72,0.9999898202395612,70.26952304774376
8.728,0.9999898480005515,70.13655139498205
8.736,0.9999898757156966,70.00349855411486
8.744,0.999989903372858,69.87036453226574
8.752,0.9999899309599266,69.73714933707835
8.76,0.9999899584648252,69.60385297671816
8.768,0.9999899858755118,69.47047545987382
8.776,0.9999900131799797,69.33701679575884
8.784,0.9999900403662613,69.20347699411303
8.792,0.9999900674224284,69.06985606520406
8.8,0.9999900943365959,68.93615401982892
8.808,0.9999901210969221,68.80237086931557
8.815999999999999,0.9999901476916118,68.66850662552433
8.824,0.9999901741089177,68.53456130084939
8.832,0.9999902003371426,68.40053490822044
8.84,0.9999902263646417,68.26642746110412
8.847999999999999,0.9999902521798234,68.13223897350542
8.856,0.9999902777711519,67.9979694599693
8.864,0.9999903031271502,67.86361893558221
8.872,0.9999903282363999,67.72918741597347
8.879999999999999,0.9999903530875446,67.59467491731684
8.888,0.9999903776692914,67.46008145633196
8.896,0.9999904019704133,67.32540705028592
8.904,0.9999904259797496,67.19065171699467
8.911999999999999,0.9999904496862094,67.05581547482446
8.92,0.999990473078773,66.92089834269336
8.928,0.9999904961464936,66.78590034007281
8.936,0.9999905188784993,66.650821486989
8.943999999999999,0.9999905412639944,66.51566180402426
8.952,0.9999905632922625,66.38042131231862
8.96,0.9999905849526675,66.2451000335713
8.968,0.9999906062346547,66.10969799004211
8.975999999999999,0.9999906271277548,65.9742152045528
8.984,0.9999906476215834,65.83865170048867
8.992,0.9999906677058449,65.70300750179989
9.0,0.9999906873703324,65.56728263300303
9.008,0.9999907066049306,65.43147711918239
9.016,0.9999907253996179,65.29559098599145
9.024000000000001,0.9999907437444668,65.15962425965436
9.032,0.999990761629648,65.02357696696733
9.04,0.9999907790454292,64.88744913529996
9.048,0.9999907959821799,64.75124079259666
9.056000000000001,0.9999908124303708,64.61495196737827
9.064,0.9999908283805765,64.47858268874316
9.072,0.9999908438234781,64.34213298636878
9.08,0.9999908587498633,64.20560289051299
9.088000000000001,0.999990873150629,64.06899243201555
9.096,0.9999908870167836,63.932301642299386
9.104,0.9999909003394473,63.79553055337198
9.112,0.9999909131098556,63.658679197826785
9.120000000000001,0.9999909253193586,63.52174760884454
9.128,0.9999909369594259,63.38473582019472
9.136,0.9999909480216447,63.24764386623674
9.144,0.9999909584977246,63.11047178192139
9.152000000000001,0.9999909683794975,62.97321960279221
9.16,0.99999097765892,62.835887364986824
9.168,0.9999909863280744,62.69847510523814
9.176,0.9999909943791708,62.560982860875775
9.184000000000001,0.9999910018045494,62.42341066982748
9.192,0.9999910085966802,62.28575857062029
9.2,0.9999910147481672,62.14802660238183
9.208,0.9999910202517478,62.01021480484171
9.216000000000001,0.9999910251002951,61.87232321833283
9.224,0.9999910292868206,61.73435188379262
9.232,0.9999910328044738,61.59630084276427
9.24,0.9999910356465462,61.4581701373981
9.248000000000001,0.9999910378064697,61.31995981045283
9.256,0.999991039277822,61.18166990529686
9.264,0.9999910400543239,61.04330046590937
9.272,0.9999910401298451,60.904851536881765
9.280000000000001,0.9999910394984028,60.766323163418846
9.288,0.9999910381541641,60.6277153913401
9.296,0.9999910360914478,60.4890282670808
9.304,0.9999910333047252,60.350261837693324
9.312000000000001,0.9999910297886225,60.21141615084845
9.32,0.9999910255379221,60.07249125483649
9.328,0.9999910205475626,59.9334871985684
9.336,0.9999910148126432,59.79440403157714
9.344,0.9999910083284219,59.65524180401882
9.352,0.9999910010903195,59.516000566673824
9.36,0.999990993093919,59.376680370948115
9.368,0.9999909843349695,59.23728126887421
9.376,0.9999909748093853,59.097803313112585
9.384,0.9999909645132475,58.95824655695256
9.392,0.9999909534428076,58.81861105431377
9.4,0.9999909415944862,58.678896859746956
9.408,0.9999909289648757,58.539104028435446
9.416,0.9999909155507422,58.39923261619595
9.424,0.9999909013490256,58.25928267947997
9.432,0.9999908863568412,58.119254275374665
9.44,0.999990870571482,57.9791474616042
9.448,0.9999908539904191,57.83896229653055
9.456,0.9999908366113031,57.69869883915489
9.464,0.9999908184319657,57.55835714911845
9.472,0.9999907994504216,57.41793728670371
9.48,0.9999907796648674,57.27743931283537
9.488,0.9999907590736861,57.136863289081525
9.496,0.9999907376754461,56.996209277654565
9.504,0.9999907154689031,56.85547734141235
9.512,0.999990692453002,56.71466754385911
9.52,0.9999906686268762,56.57377994914663
9.528,0.9999906439898517,56.43281462207505
9.536,0.999990618541446,56.2917716280941
9.544,0.9999905922813693,56.150651033303845
9.552,0.999990565209528,56.00945290445592
9.56,0.999990537326023,55.86817730895428
9.568,0.9999905086311527,55.72682431485645
9.576,0.9999904791254134,55.58539399087405
9.584,0.9999904488095008,55.44388640637426
9.592,0.9999904176843109,55.30230163138034
9.6,0.999990385750941,55.16063973657278
9.608,0.9999903530106913,55.01890079329014
9.616,0.9999903194650658,54.87708487353004
9.624,0.9999902851157728,54.73519204994992
9.632,0.9999902499647266,54.59322239586813
9.64,0.9999902140140492,54.451175985264584
9.648,0.9999901772660686,54.309052892781885
9.656,0.9999901397233246,54.166853193725885
9.664,0.9999901013885641,54.0245769640669
9.672,0.9999900622647475,53.882224280440184
9.68,0.9999900223550455,53.73979522014709
9.688,0.9999899816628433,53.59728986115561
9.696,0.9999899401917384,53.45470828210144
9.704,0.999989897945545,53.31205056228853
9.712,0.9999898549282923,53.16931678169015
9.72,0.9999898111442266,53.02650702094941
9.728,0.9999897665978124,52.88362136138025
9.736,0.9999897212937321,52.740659884967975
9.744,0.9999896752368889,52.597622674370264
