freq,mag,phase
6.0,0.999995172364933,55.794640609071735
6.008,0.9999954963799331,55.61214801048121
6.016,0.999995806892958,55.429607292516486
6.024,0.9999961041746269,55.24701850709242
6.032,0.9999963884924477,55.064381706706286
6.04,0.9999966601108364,54.881696944438
6.048,0.9999969192911355,54.69896427395041
6.056,0.9999971662916325,54.5161837494895
6.064,0.9999974013675773,54.333355425884626
6.072,0.999997624771203,54.15047935854864
6.08,0.9999978367517421,53.96755560347821
6.088,0.9999980375554467,53.784584217253844
6.096,0.9999982274256062,53.601565257040185
6.104,0.9999984066025652,53.41849878058606
6.112,0.9999985753237435,53.23538484622457
6.12,0.9999987338236531,53.05222351287337
6.128,0.999998882333918,52.869014840034595
6.136,0.999999021083291,52.685758887795046
6.144,0.9999991502976737,52.50245571682615
6.152,0.9999992702001345,52.31910538838419
6.16,0.9999993810109258,52.13570796431015
6.168,0.9999994829475043,51.952263507029876
6.176,0.9999995762245478,51.768772079554026
6.184,0.9999996610539754,51.58523374547804
6.192,0.9999997376449634,51.401648568982225
6.2,0.9999998062039654,51.21801661483158
6.208,0.9999998669347308,51.034337948375835
6.216,0.9999999200383214,50.85061263554937
6.224,0.9999999657131318,50.66684074287114
6.232,1.0,50.48302233744454
6.24,1.0,50.29915748695736
6.248,1.0,50.115246259681605
6.256,1.0,49.93128872447336
6.264,1.0,49.74728495077271
6.272,0.9999999999999999,49.56323500860344
6.28,1.0,49.37913896857297
6.288,1.0,49.19499690187209
6.296,1.0,49.01080888027477
6.304,0.9999999999999999,48.82657497613795
6.312,0.9999999999999999,48.64229526240124
6.32,1.0,48.4579698125867
6.328,0.9999999689927449,48.27359870079856
6.336,0.9999999300452097,48.08918200172293
6.344,0.9999998863370061,47.904719790627546
6.352,0.9999998380263091,47.72021214336133
6.36,0.9999997852689346,47.53565913635416
6.368,0.9999997282183549,47.351060846616534
6.376,0.999999667025719,47.16641735173909
6.384,0.9999996018398677,46.981728729892374
6.392,0.9999995328073548,46.79699505982633
6.4,0.9999994600724618,46.61221642086997
6.408,0.9999993837772176,46.427392892930875
6.416,0.9999993040614152,46.24252455649485
6.424,0.9999992210626305,46.0576114926254
6.432,0.9999991349162382,45.8726537829633
6.44,0.9999990457554307,45.687651509726074
6.448,0.9999989537112369,45.50260475570754
6.456,0.9999988589125365,45.317513604277266
6.464,0.9999987614860804,45.132378139380066
6.472,0.9999986615565071,44.947198445535456
6.48,0.9999985592463604,44.76197460783708
6.4879999999999995,0.9999984546761066,44.57670671195218
6.496,0.9999983479641517,44.391394844120846
6.504,0.9999982392268598,44.20603909115574
6.5120000000000005,0.9999981285785696,44.020639540441124
6.52,0.9999980161316112,43.83519627993251
6.5280000000000005,0.999997901996325,43.649709398155736
6.536,0.999997786281077,43.46417898420666
6.5440000000000005,0.9999976690922775,43.278605127750126
6.552,0.9999975505343974,43.09298791901952
6.5600000000000005,0.9999974307099861,42.9073274488159
6.568,0.9999973097196874,42.72162380850748
6.5760000000000005,0.9999971876622568,42.53587709002861
6.584,0.99999706463458,42.350087385879334
6.592,0.9999969407316877,42.16425478912436
6.6,0.9999968160467742,41.978379393392444
6.608,0.9999966906712131,41.79246129287557
6.616,0.9999965646945745,41.606500582328074
6.624,0.9999964382046423,41.42049735706591
6.632,0.9999963112874298,41.23445171296574
6.64,0.9999961840271975,41.04836374646412
6.648,0.9999960565064694,40.8622335545566
6.656,0.9999959288060492,40.67606123479691
6.664,0.9999958010050373,40.489846885295975
6.672,0.999995673180847,40.30359060472106
6.68,0.9999955454092213,40.11729249229484
6.688,0.9999954177642489,39.93095264779444
6.696,0.9999952903183811,39.744571171550476
6.704,0.9999951631424471,39.55814816444612
6.712,0.9999950363056719,39.37168372791609
6.72,0.9999949098756908,39.185177963945684
6.728,0.999994783918567,38.99863097506965
6.736,0.9999946584988063,38.812042864371364
6.744,0.9999945336793745,38.62541373548158
6.752,0.9999944095217126,38.43874369257754
6.76,0.9999942860857532,38.25203284038175
6.768,0.999994163429936,38.06528128416106
6.776,0.999994041611224,37.87848912972541
6.784,0.9999939206851192,37.69165648342683
6.792,0.9999938007056784,37.50478345215824
6.8,0.9999936817255285,37.31787014335236
6.808,0.9999935637958832,37.13091666498051
6.816,0.9999934469665568,36.94392312555147
6.824,0.9999933312859827,36.75688963411029
6.832,0.9999932168012244,36.56981630023708
6.84,0.9999931035579961,36.38270323404578
6.848,0.9999929916006735,36.19555054618302
6.856,0.9999928809723125,36.00835834782675
6.864,0.9999927717146625,35.821126750685075
6.872,0.9999926638681823,35.63385586699496
6.88,0.9999925574720551,35.446545809520984
6.888,0.9999924525642037,35.25919669155395
6.896,0.9999923491813049,35.071808626909664
6.904,0.9999922473588061,34.884381729927554
6.912,0.9999921471309381,34.69691611546943
6.92,0.9999920485307318,34.50941189891793
6.928,0.9999919515900307,34.3218691961754
6.936,0.9999918563395092,34.13428812366236
6.944,0.9999917628086835,33.946668798316125
6.952,0.9999916710259281,33.759011337589435
6.96,0.9999915810184911,33.57131585944905
6.968,0.9999914928125062,33.383582482374216
6.976,0.9999914064330094,33.19581132535535
6.984,0.9999913219039527,33.00800250789249
6.992,0.9999912392482176,32.82015614999387
7.0,0.9999911584876309,32.63227237217437
7.008,0.9999910796429765,32.44435129545408
7.016,0.9999910027340122,32.25639304135677
7.024,0.9999909277794818,32.0683977319083
7.032,0.9999908547971301,31.880365489635185
7.04,0.9999907838037161,31.692296437562966
7.048,0.9999907148150271,31.50419069921464
7.056,0.9999906478458928,31.316048398609144
7.064,0.9999905829101985,31.127869660259666
7.072,0.9999905200208988,30.939654609172123
7.08,0.9999904591900323,30.751403370843526
7.088,0.9999904004287324,30.56311607126027
7.096,0.9999903437472442,30.374792836896603
7.104,0.9999902891549352,30.1864337947129
7.112,0.9999902366603094,29.99803907215398
7.12,0.9999901862710212,29.80960879714746
7.128,0.9999901379938878,29.621143098102063
7.136,0.9999900918349023,29.432642103905867
7.144,0.9999900477992468,29.244105943924616
7.152,0.9999900058913064,29.05553474799996
7.16,0.9999899661146794,28.86692864644774
7.168,0.9999899284721938,28.678287770056205
7.176,0.9999898929659163,28.48961225008427
7.184,0.9999898595971682,28.30090221825964
7.192,0.9999898283665356,28.112157806777162
7.2,0.9999897992738834,27.92337914829688
7.208,0.9999897723183665,27.734566375942315
7.216,0.9999897474984435,27.545719623298552
7.224,0.9999897248118882,27.356839024410416
7.232,0.9999897042558017,27.16792471378068
7.24,0.9999896858266252,26.978976826368104
7.248,0.9999896695201519,26.7899954975856
7.256,0.999989655331538,26.60098086329835
7.264,0.9999896432553165,26.411933059821838
7.272,0.9999896332854075,26.222852223920036
7.28,0.9999896254151299,26.033738492803394
7.288,0.9999896196372151,25.8445920041269
7.296,0.9999896159438161,25.655412895988196
7.304,0.9999896143265209,25.466201306925523
7.312,0.9999896147763627,25.27695737591585
7.32,0.9999896172838322,25.08768124237279
7.328,0.9999896218388888,24.898373046144652
7.336,0.9999896284309714,24.70903292751245
7.344,0.9999896370490101,24.51966102718782
7.352,0.9999896476814362,24.330257486311083
7.36,0.9999896603161955,24.140822446449096
7.368,0.9999896749407565,23.95135604959329
7.376,0.9999896915421237,23.76185843815752
7.384,0.9999897101068459,23.57232975497609
7.392,0.9999897306210301,23.38277014330156
7.4,0.9999897530703484,23.193179746802773
7.4079999999999995,0.9999897774400519,23.00355870956264
7.416,0.9999898037149791,22.81390717607601
7.4239999999999995,0.999989831879567,22.6242252912477
7.432,0.9999898619178619,22.43451320039013
7.4399999999999995,0.999989893813528,22.244771049221427
7.448,0.9999899275498595,22.054998983862983
7.4559999999999995,0.9999899631097899,21.86519715083757
7.464,0.9999900004759017,21.67536569706689
7.4719999999999995,0.9999900396304366,21.485504769869657
7.48,0.9999900805553054,21.2956145169591
7.4879999999999995,0.9999901232320976,21.10569508644106
7.496,0.9999901676420911,20.915746626811472
7.504,0.9999902137662623,20.725769286954446
7.5120000000000005,0.9999902615852945,20.53576321613967
7.52,0.9999903110795889,20.345728564020536
7.5280000000000005,0.9999903622292725,20.15566548063152
7.536,0.9999904150142078,19.96557411638627
7.5440000000000005,0.9999904694140032,19.775454622074946
7.552,0.9999905254080199,19.585307148862338
7.5600000000000005,0.9999905829753829,19.39513184828515
7.568,0.9999906420949892,19.2049288722501
7.5760000000000005,0.9999907027455163,19.01469837303124
7.584,0.9999907649054319,18.824440503267958
7.5920000000000005,0.9999908285530014,18.634155415962294
7.6,0.9999908936662979,18.443843264477003
7.6080000000000005,0.9999909602232102,18.25350420253277
7.616,0.9999910282014501,18.06313838420626
7.6240000000000006,0.9999910975785632,17.872745963927372
7.632,0.9999911683319354,17.68232709647722
7.640000000000001,0.9999912404388007,17.49188193698538
7.648,0.9999913138762511,17.301410640927866
7.656000000000001,0.9999913886212443,17.11091336412435
7.664,0.9999914646506101,16.920390262736145
7.672,0.9999915419410599,16.729841493263386
7.68,0.9999916204691942,16.53926721254291
7.688,0.9999917002115096,16.348667577745648
7.696,0.9999917811444071,16.158042746374264
7.704,0.9999918632442004,15.967392876260654
7.712,0.9999919464871213,15.776718125563503
7.72,0.9999920308493294,15.586018652765809
7.728,0.9999921163069176,15.39529461667241
7.736,0.9999922028359207,15.204546176407506
7.744,0.9999922904123218,15.013773491412158
7.752,0.9999923790120595,14.822976721441776
7.76,0.9999924686110353,14.632156026563653
7.768,0.9999925591851198,14.44131156715439
7.776,0.9999926507101601,14.250443503897424
7.784,0.9999927431619865,14.059551997780488
7.792,0.9999928365164191,13.868637210093054
7.8,0.9999929307492738,13.677699302423816
7.808,0.9999930258363704,13.486738436658122
7.816,0.9999931217535368,13.295754774975423
7.824,0.9999932184766177,13.104748479846709
7.832,0.999993315981479,12.913719714031943
7.84,0.9999934142440147,12.722668640577481
7.848,0.9999935132401531,12.531595422813483
7.856,0.9999936129458629,12.340500224351329
7.864,0.9999937133371589,12.14938320908102
7.872,0.9999938143901077,11.958244541168584
7.88,0.9999939160808341,11.767084385053451
7.888,0.9999940183855256,11.575902905445856
7.896,0.9999941212804397,11.384700267324208
7.904,0.9999942247419085,11.19347663593245
7.912,0.9999943287463431,11.00223217677747
7.92,0.9999944332702414,10.81096705562641
7.928,0.9999945382901916,10.619681438504061
7.936,0.9999946437828776,10.428375491690195
7.944,0.9999947497250843,10.237049381716911
7.952,0.999994856093704,10.045703275365986
7.96,0.9999949628657385,9.854337339666193
7.968,0.9999950700183069,9.66295174189065
7.976,0.9999951775286483,9.471546649554128
7.984,0.9999952853741282,9.280122230410369
7.992,0.9999953935322418,9.088678652449415
8.0,0.9999955019806189,8.897216083894918
8.008,0.9999956106970296,8.705734693201432
8.016,0.9999957196593869,8.51423464905166
8.024000000000001,0.9999958288457521,8.322716120353892
8.032,0.9999959382343394,8.131179276239227
8.04,0.9999960478035185,7.9396242860587405
8.048,0.9999961575318208,7.74805131938088
8.056000000000001,0.9999962673979418,7.556460545988818
8.064,0.999996377380746,7.364852135877634
8.072,0.9999964874592702,7.1732262592515115
8.08,0.9999965976127273,6.981583086521083
8.088000000000001,0.9999967078205108,6.789922788300767
8.096,0.9999968180621975,6.598245535405962
8.104,0.9999969283175514,6.406551498850203
8.112,0.999997038566528,6.2148408498424965
8.120000000000001,0.9999971487892761,6.023113759784659
8.128,0.9999972589661421,5.831370400268472
8.136,0.9999973690776738,5.639610943072843
8.144,0.9999974791046219,5.447835560161124
8.152000000000001,0.9999975890279458,5.256044423678423
8.16,0.9999976988288134,5.064237705948774
8.168,0.9999978084886066,4.872415579472251
8.176,0.9999979179889232,4.680578216922303
8.184000000000001,0.9999980273115798,4.488725791143051
8.192,0.9999981364386141,4.296858475146419
8.2,0.9999982453522888,4.10497644210928
8.208,0.9999983540350927,3.9130798653707375
8.216000000000001,0.9999984624697442,3.721168918429448
8.224,0.999998570639194,3.5292437749407197
8.232,0.9999986785266266,3.3373046087136577
8.24,0.9999987861154623,3.1453515937084418
8.248000000000001,0.9999988933893614,2.9533849040336193
8.256,0.9999990003322247,2.761404713943224
8.264,0.9999991069281956,2.5694111978338956
8.272,0.9999992131616623,2.377404530242148
8.280000000000001,0.9999993190172612,2.185384885841674
8.288,0.9999994244798762,1.9933524394404254
8.296,0.9999995295346432,1.8013073659777539
8.304,0.999999634166949,1.6092498405216749
8.312,0.9999997383624362,1.4171800382661766
8.32,0.9999998421070017,1.2250981345281244
8.328,0.9999999453868005,1.0330043047447923
8.336,1.0,0.840898724470695
8.344,1.0,0.6487815693751353
8.352,0.9999999999999999,0.45665301523903434
8.36,1.0,0.2645132379524619
8.368,0.9999999999999999,0.07236241351148619
8.376,1.0,-0.11979928198431103
8.384,0.9999999999999999,-0.3119716723349897
8.392,0.9999999999999999,-0.5041545812427091
8.4,0.9999999999999999,-0.6963478323149216
8.408,0.9999999999999999,-0.8885512490668106
8.416,1.0,-1.0807646549244774
8.424,1.0,-1.2729878732274038
8.432,1.0,-1.4652207272316184
8.44,0.9999999999999999,-1.657463040112154
8.448,0.9999999999999999,-1.8497146349662392
8.456,1.0,-2.0419753348157377
8.464,1.0,-2.234244962610333
8.472,0.9999999999999998,-2.4265233412299865
8.48,0.9999999999999999,-2.618810293488096
8.488,1.0,-2.81110564213398
8.496,1.0,-3.0034092098560223
8.504,0.9999999999999999,-3.195720819284145
8.512,0.9999999999999999,-3.3880402929929576
8.52,1.0,-3.5803674535042433
8.528,1.0,-3.772702123290087
8.536,1.0,-3.965044124775357
8.544,1.0,-4.15739328034085
8.552,1.0,-4.349749412325754
8.56,1.0,-4.5421123430307935
8.568,1.0,-4.7344818947207035
8.576,0.9999999999999999,-4.926857889627336
8.584,1.0,-5.119240149952169
8.592,1.0,-5.311628497869407
8.6,0.9999999999999999,-5.504022755528439
8.608,1.0,-5.696422745056997
8.616,1.0,-5.888828288563577
8.624,1.0000000000000002,-6.081239208140589
8.632,1.0,-6.273655325866795
8.64,0.9999999999999999,-6.466076463810434
8.648,1.0,-6.658502444031668
8.656,1.0,-6.850933088585699
8.664,0.9999999999999999,-7.043368219525207
8.672,1.0,-7.235807658903463
8.68,1.0,-7.428251228776759
8.688,1.0,-7.620698751207524
8.696,1.0,-7.8131500482667375
8.704,1.0,-8.00560494203705
8.712,1.0,-8.198063254615187
8.72,0.9999999999999999,-8.390524808115053
8.728,1.0,-8.582989424670131
8.736,0.9999999999999999,-8.775456926436616
8.744,0.9999999999999999,-8.967927135595753
8.752,0.9999999999999999,-9.16039987435698
8.76,1.0,-9.352874964960295
8.768,0.9999999999999999,-9.54535222967935
8.776,1.0,-9.737831490823828
8.784,1.0,-9.930312570742515
8.792,0.9999999999999999,-10.122795291825696
8.8,1.0,-10.315279476508197
8.808,1.0,-10.50776494727178
8.815999999999999,1.0,-10.700251526648136
8.824,1.0,-10.89273903722148
8.832,1.0,-11.085227301631154
8.84,0.9999999999999999,-11.277716142574427
8.847999999999999,0.9999999999999999,-11.470205382809262
8.856,0.9999999999999999,-11.662694845156931
8.864,1.0,-11.855184352504615
8.872,0.9999999999999998,-12.047673727808164
8.879999999999999,1.0,-12.24016279409485
8.888,0.9999999999999999,-12.432651374465987
8.896,1.0,-12.62513929209947
8.904,1.0,-12.817626370252556
8.911999999999999,0.9999999999999999,-13.010112432264592
8.92,0.9999999999999999,-13.202597301559571
8.928,1.0,-13.395080801648701
8.936,1.0,-13.587562756133153
8.943999999999999,0.9999999999999999,-13.780042988706741
8.952,0.9999999999999999,-13.97252132315851
8.96,1.0,-14.164997583375232
8.968,1.0,-14.35747159334415
8.975999999999999,0.9999999999999999,-14.549943177155647
8.984,1.0,-14.742412159005802
8.992,0.9999999999999999,-14.934878363198857
9.0,1.0,-15.127341614149946
9.008,1.0,-15.319801736387772
9.016,0.9999999999999999,-15.512258554557045
9.024000000000001,1.0,-15.704711893421052
9.032,1.0,-15.897161577864257
9.04,1.0,-16.089607432895008
9.048,1.0,-16.282049283647943
9.056000000000001,1.0,-16.47448695538652
9.064,0.9999999999999999,-16.666920273505628
9.072,1.0,-16.85934906353419
9.08,0.9999999999999998,-17.051773151137645
9.088000000000001,1.0000000000000002,-17.244192362120387
9.096,1.0,-17.436606522428367
9.104,0.9999999999999999,-17.629015458151652
9.112,0.9999999999999999,-17.821418995526944
9.120000000000001,0.9999999999999999,-18.01381696093989
9.128,0.9999999999999999,-18.20620918092773
9.136,1.0,-18.39859548218185
9.144,0.9999999999999998,-18.590975691550167
9.152000000000001,0.9999999999999999,-18.783349636039535
9.16,1.0,-18.9757171428183
9.168,1.0,-19.168078039218816
9.176,0.9999999999999999,-19.36043215273983
9.184000000000001,1.0,-19.55277931104884
9.192,1.0,-19.74511934198463
9.2,0.9999999999999999,-19.93745207355976
9.208,1.0,-20.129777333962938
9.216000000000001,0.9999999999999999,-20.3220949515613
9.224,1.0,-20.514404754902973
9.232,1.0,-20.70670657271947
9.24,1.0,-20.89900023392808
9.248000000000001,1.0,-21.091285567634138
9.256,1.0,-21.283562403133452
9.264,1.0,-21.475830569914848
9.272,0.9999999999999999,-21.668089897662302
9.280000000000001,0.9999999999999999,-21.86034021625737
9.288,1.0,-22.05258135578151
9.296,1.0,-22.244813146518556
9.304,1.0,-22.437035418956903
9.312000000000001,0.9999999999999999,-22.629248003791815
9.32,1.0,-22.821450731927793
9.328,1.0,-23.013643434480958
9.336,1.0,-23.20582594278126
9.344,1.0,-23.397998088374667
9.352,1.0,-23.59015970302572
9.36,1.0,-23.782310618719436
9.368,1.0000000000000002,-23.97445066766398
9.376,0.9999999999999999,-24.166579682292536
9.384,1.0,-24.358697495265893
9.392,1.0,-24.55080393947435
9.4,1.0,-24.742898848040287
9.408,1.0,-24.934982054320066
9.416,0.9999999999999999,-25.127053391906518
9.424,1.0,-25.31911269463089
9.432,1.0,-25.51115979656533
9.44,1.0,-25.703194532024686
9.448,0.9999999999999999,-25.895216735569193
9.456,1.0,-26.087226242006086
9.464,0.9999999999999999,-26.27922288639223
9.472,1.0,-26.471206504035905
9.48,1.0,-26.66317693049929
9.488,1.0,-26.85513400160021
9.496,1.0,-27.047077553414688
9.504,1.0000000000000002,-27.239007422278608
9.512,0.9999999999999999,-27.430923444790263
9.52,1.0000000000000002,-27.62282545781206
9.528,0.9999999999999999,-27.814713298472928
9.536,1.0,-28.006586804170087
9.544,1.0,-28.198445812571464
9.552,0.9999999999999999,-28.390290161617386
9.56,0.9999999999999999,-28.582119689522965
9.568,1.0,-28.77393423477985
9.576,0.9999999999999999,-28.96573363615852
9.584,1.0,-29.15751773271
9.592,1.0,-29.349286363768265
9.6,0.9999999999999999,-29.54103936895181
9.608,1.0,-29.732776588166058
9.616,0.9999999999999999,-29.924497861604944
9.624,1.0,-30.116203029753265
9.632,1.0,-30.307891933388323
9.64,0.9999999999999999,-30.499564413582167
9.648,0.9999999999999999,-30.691220311703226
9.656,1.0,-30.882859469418595
9.664,0.9999999999999999,-31.074481728695595
9.672,0.9999999999999999,-31.266086931804054
9.68,1.0,-31.457674921317842
9.688,1.0,-31.64924554011716
9.696,1.0,-31.840798631390026
9.704,1.0,-32.03233403863452
9.712,0.9999999999999999,-32.223851605660336
9.72,1.0,-32.415351176590924
9.728,0.9999999999999999,-32.60683259586507
9.736,1.0,-32.79829570823897
9.744,1.0,-32.98974035878784
9.752,0.9999999999999999,-33.18116639290799
9.76,1.0,-33.37257365631833
9.768,1.0,-33.56396199506244
9.776,1.0,-33.75533125551016
9.784,0.9999999999999999,-33.946681284359556
9.792,1.0,-34.138011928638456
9.8,1.0,-34.32932303570646
9.808,1.0,-34.52061445325644
9.816,0.9999999999999999,-34.71188602931656
9.824,0.9999999999999999,-34.90313761225167
9.832,1.0,-35.09436905076538
9.84,1.0,-35.28558019390141
9.847999999999999,1.0,-35.476770891045646
9.856,1.0,-35.66794099192759
9.864,1.0,-35.85909034662205
9.872,1.0,-36.050218805550855
9.879999999999999,1.0,-36.2413262194846
9.888,1.0,-36.43241243954424
9.896,1.0,-36.623477317202564
9.904,0.9999999999999999,-36.814520704286025
9.911999999999999,1.0,-37.00554245297632
