freq,mag,phase
6.0,0.9997918874182066,-85.18644053419754
6.002285568,0.999605012675061,-85.3095492124812
6.004571648,0.9994430381165281,-85.43011992588077
6.006857216,0.9993162832186886,-85.54861280961569
6.009142784,0.9992328114609893,-85.66561666757312
6.011428352,0.9991978221680365,-85.78173500173085
6.013714432,0.99921377123474,-85.89768266659533
6.016,0.999279531612814,-86.01430515538877
6.018285568,0.9993908984173618,-86.13222295911267
6.020571648,0.9995407386001106,-86.25203466100461
6.022857216,0.9997198446839609,-86.37424765719034
6.025142784,0.9999164062618292,-86.4992584713063
6.027428352,1.0001181367723782,-86.6271853357772
6.029714432,1.0003122488494984,-86.75796174076497
6.032,1.0004863796139822,-86.8914554625867
6.034285568,1.0006294745670214,-87.02726736224105
6.036571648,1.0007324611681445,-87.1648510773245
6.038857216,1.0007886519993858,-87.303632502622
6.041142784,1.0007946099804332,-87.44288149496926
6.043428352,1.0007497411627042,-87.58189008343349
6.045714432,1.0006572583326572,-87.71987707904219
6.048,1.000522792370123,-87.85626301920514
6.050285568,1.0003548792425356,-87.99043333293486
6.052571648,1.0001641996067026,-88.12201710167956
6.054857216,0.9999628081318708,-88.25075305188601
6.057142784,0.9997633200805153,-88.37661644398385
6.059428352,0.999578724679628,-88.49967869926503
6.061714432,0.9994206163601722,-88.6202460394374
6.064,0.9992992021645029,-88.73879612848835
6.066285568,0.9992220488572509,-88.85589316795752
6.068571648,0.9991941278784998,-88.97227803583067
6.070857216,0.9992172730075367,-89.08856711309652
6.073142784,0.9992900646930172,-89.20563800218918
6.075428352,0.999407871892386,-89.32407945815251
6.077714432,0.9995629276280603,-89.44450946767394
6.08,0.9997457878687903,-89.56742574851992
6.082285568,0.9999447245909904,-89.69312086070435
6.084571648,1.0001468163735372,-89.8217851941621
6.086857216,1.000339601847826,-89.95330502922724
6.089142784,1.0005104288593074,-90.08750246719234
6.091428352,1.0006488701345815,-90.22394397495667
6.093714432,1.0007458520523114,-90.3621152982315
6.096,1.0007952972523897,-90.5013826473494
6.098285568,1.0007942201274969,-90.64101490606609
6.100571648,1.0007423609303434,-90.78024193544925
6.102857216,1.0006431753061962,-90.91841016040863
6.105142784,1.0005027405305364,-91.05483430309276
6.107428352,1.0003301962633568,-91.1890340254329
6.109714432,1.0001365777066573,-91.3205334730661
6.112,0.9999337248594525,-91.44921403838994
6.114285568,0.9997351856731127,-91.57493156966636
6.116571648,0.9995528443597256,-91.69792031717743
6.118857216,0.999398951507515,-91.8184552796578
6.121142784,0.9992827882586768,-91.93705111056946
6.123428352,0.9992121403062613,-92.0542756556592
6.125714432,0.9991912903695864,-92.170861305515
6.128,0.9992217843217626,-92.28748259834997
6.130285568,0.9993015701118623,-92.40498125321245
6.132571648,0.9994255151029612,-92.52391387147067
6.134857216,0.9995859365479698,-92.6449769059748
6.137142784,0.9997722830667877,-92.76852525161802
6.139428352,0.9999731578199553,-92.89497466090263
6.141714432,1.0001754922277146,-93.02434382943144
6.144,1.0003665139058024,-93.1565818498812
6.146285568,1.000534066312563,-93.29142590171195
6.148571648,1.0006676011772562,-93.42848024826114
6.150857216,1.000758498237676,-93.56720837143537
6.153142784,1.0008012425435853,-93.70689300406602
6.155428352,1.0007925575733765,-93.84684665776615
6.157714432,1.0007336465537306,-93.9862838227665
6.16,1.000627885119353,-94.12454221301309
6.162285568,1.000481818968479,-94.26104536641495
6.164571648,1.0003050122776203,-94.39517180960505
6.166857216,1.0001086541388031,-94.52658934390975
6.169142784,0.9999049653083013,-94.6551297765772
6.171428352,0.999707022015148,-94.78076699902256
6.173714432,0.999527564293496,-94.90364095000561
6.176,0.9993777202836231,-95.0241425267651
6.178285568,0.9992672311932146,-95.14272490313495
6.180571648,0.9992031533311921,-95.26005983027352
6.182857216,0.9991895855779543,-95.37681428846929
6.185142784,0.9992273618936071,-95.49379142713732
6.187428352,0.9993139003035074,-95.61169015120247
6.189714432,0.999443871606937,-95.73115656157961
6.192,0.9996093724934184,-95.85275214915818
6.194285568,0.9997990790420138,-95.97699083181575
6.196571648,1.0000018098415324,-96.10410126439726
6.198857216,1.0002039972352188,-96.23414369136037
6.201142784,1.0003931736789675,-96.36709430792627
6.203428352,1.0005571631009025,-96.50253797815665
6.205714432,1.0006855350935673,-96.64015916855492
6.208,1.0007702606885724,-96.77938337577379
6.210285568,1.0008059340194198,-96.9194225896233
6.212571648,1.0007900969376746,-97.0596956692153
6.214857216,1.000724109432471,-97.19932977498577
6.217142784,1.000611648778187,-97.33766636947564
6.219428352,1.0004603080107217,-97.47417538509397
6.221714432,1.0002793293993981,-97.60821555685271
6.224,1.0000804326745654,-97.73951680752445
6.226285568,0.9998761532229984,-97.8678567117709
6.228571648,0.9996792819222728,-97.99334263382485
6.230857216,0.9995026713251524,-98.11613910339673
6.233142784,0.9993574413707558,-98.23651681325134
6.235428352,0.999252629080181,-98.35513344799978
6.237714432,0.999195227284667,-98.47253695501247
6.24,0.9991887508431304,-98.58950029853403
6.242285568,0.9992337063097814,-98.7068007730994
6.244571648,0.9993271697957484,-98.82506522750263
6.246857216,0.9994632992190454,-98.94501173064397
6.249142784,0.9996331740966122,-99.06721311149012
6.251428352,0.9998263697606238,-99.19206591823485
6.253714432,1.0000304750426579,-99.3198235910226
6.256,1.0002323018245514,-99.45050331304166
6.258285568,1.0004193876529,-99.58410497570544
6.260571648,1.000579588097137,-99.72015276183458
6.262857216,1.0007026643678114,-99.8583118041249
6.265142784,1.0007812540892453,-99.99794682023962
6.267428352,1.0008097694538112,-100.13838988036498
6.269714432,1.0007867389204474,-100.27887807014231
6.272,1.00071354429181,-100.41865436231615
6.274285568,1.0005949463725077,-100.55705161263123
6.276571648,1.0004381083167022,-100.69348161170073
6.278857216,1.000253331620163,-100.8273933098437
6.281142784,1.0000519476618521,-100.95855947514005
6.283428352,0.9998472459266989,-101.0867240113137
6.285714432,0.9996517731222491,-101.21201562302106
6.288,0.9994783114735958,-101.33463370807803
6.290285568,0.9993376662107845,-101.45495901117711
6.292571648,0.9992387601416978,-101.57353872548757
6.294857216,0.9991881832656688,-101.69107333855602
6.297142784,0.9991889317094216,-101.80816532264589
6.299428352,0.9992411729426564,-101.92569922743672
6.301714432,0.9993414055429664,-102.04437422753243
6.304,0.9994832328635939,-102.16479048070751
6.306285568,0.9996578446959292,-102.28754944285375
6.308571648,0.9998540102341053,-102.41301413233022
6.310857216,1.0000593163864924,-102.54140491276351
6.313142784,1.0002606168106911,-102.67271935151233
6.315428352,1.0004451483699643,-102.8068871054048
6.317714432,1.0006014051203178,-102.94356491560391
6.32,1.0007191915913802,-103.08220919320858
6.322285568,1.0007911900055273,-103.22225954536952
6.324571648,1.0008125817796543,-103.36297335802627
6.326857216,1.00078236029305,-103.50362976389802
6.329142784,1.0007022883153163,-103.64354022464272
6.331428352,1.0005771541178736,-103.78191796435345
6.333714432,1.0004152681990626,-103.91823568509966
6.336,1.000226774621067,-104.05204847610773
6.338285568,1.0000234399851022,-104.18298195871074
6.340571648,0.9998184482968167,-104.31095770909687
6.342857216,0.9996245004885806,-104.43605786374083
6.345142784,0.999454297483319,-104.55850333644997
6.347428352,0.9993184632133904,-104.67867965392252
6.349714432,0.9992257301529648,-104.79723954397606
6.352,0.9991820652176702,-104.91476010442626
6.354285568,0.999190170063519,-105.03211534324107
6.356571648,0.9992495146812991,-105.14991154332286
6.358857216,0.9993562078822555,-105.26892589602232
6.361142784,0.9995038456381615,-105.3897887086267
6.363428352,0.9996828615959981,-105.51307278821368
6.365714432,0.9998819253690248,-105.63906362462042
6.368,1.0000881354820594,-105.7680745817529
6.370285568,1.000288654281075,-105.90000276514658
6.372571648,1.0004706371828191,-106.03478952664334
6.374857216,1.0006225667368818,-106.1719474591078
6.377142784,1.0007348280655364,-106.31104311436322
6.379428352,1.0008002282480422,-106.45145755082973
6.381714432,1.0008146705436083,-106.59245068321225
6.384,1.0007770329434333,-106.73328333619462
6.386285568,1.0006898606492898,-106.87320448299272
6.388571648,1.0005586908782511,-107.01156714905011
6.390857216,1.0003918924268813,-107.14774540812947
6.393142784,1.0001997090661867,-107.2813569121026
6.395428352,0.9999947240435992,-107.41206303571909
6.397714432,0.999789608969584,-107.53981460178888
6.4,0.999597667013004,-107.66463565024019
6.402285568,0.9994309866156459,-107.78688380209289
6.404571648,0.999300238477563,-107.90696018536012
6.406857216,0.9992137134424685,-108.02543817062633
6.409142784,0.9991768155199396,-108.14304794905546
6.411428352,0.9991922674276306,-108.26049111518223
6.413714432,0.9992587079023209,-108.37854777191036
6.416,0.9993721358471874,-108.49791422374257
6.418285568,0.9995253330089827,-108.61922601614577
6.420571648,0.9997085035892168,-108.74303094537626
6.422857216,0.9999099318762161,-108.86958632404192
6.425142784,1.0001170343491101,-108.99914948154958
6.427428352,1.0003164541784437,-109.13166063041704
6.429714432,1.0004956572509274,-109.26693325013164
6.432,1.000643242224055,-109.40458566703283
6.434285568,1.000749706846317,-109.5441509201426
6.436571648,1.0008083943460548,-109.68484550787088
6.438857216,1.0008155093293396,-109.82608421039997
6.441142784,1.000770796877775,-109.9670087818054
6.443428352,1.0006767621633303,-110.10693805145694
6.445714432,1.0005395345304668,-110.24523726234229
6.448,1.0003678207347328,-110.38123042178697
6.450285568,1.0001723096683117,-110.51460478191389
6.452571648,0.999965726388199,-110.64503818081684
6.454857216,0.999760944571899,-110.7725386059422
6.457142784,0.9995711014272651,-110.89710725992488
6.459428352,0.9994082447186294,-111.01911816147386
6.461714432,0.9992827251783059,-111.13904859636622
6.464,0.9992023532828269,-111.25745734316918
6.466285568,0.9991726758762105,-111.37508118796197
6.468571648,0.9991953966834616,-111.49264834533527
6.470857216,0.9992689798707814,-111.61093096554846
6.473142784,0.9993888383553927,-111.73063406366495
6.475428352,0.9995474895119696,-111.85236568544046
6.477714432,0.9997345715670298,-111.97659737005328
6.48,0.9999384096844663,-112.10372683968305
6.482285568,1.0001460048139381,-112.23382644823312
6.484571648,1.0003441727357119,-112.36687482565999
6.486857216,1.0005202590358873,-112.50267171693741
6.489142784,1.000663133874444,-112.64076722832951
6.491428352,1.000763768602139,-112.78068837969641
6.493714432,1.0008156185888204,-112.92165772946234
6.496,1.0008155375014656,-113.06304597633995
6.498285568,1.0007635012734777,-113.20406853741915
6.500571648,1.0006626652005663,-113.34397581727937
6.502857216,1.0005195463084169,-113.48210768130325
6.505142784,1.0003431666224971,-113.61790360200715
6.507428352,1.000144652577026,-113.7510235808373
6.509714432,0.9999366468087962,-113.8811633900889
6.512,0.9997323842617307,-114.00831146718184
6.514285568,0.9995448802482046,-114.13264613758874
6.516571648,0.9993859173606812,-114.25437786730129
6.518857216,0.9992657884025193,-114.37412297110387
6.521142784,0.9991919559198884,-114.49247978915153
6.523428352,0.9991694296899509,-114.61010291654969
6.525714432,0.9991994251232791,-114.72778148327403
6.528,0.9992800578004376,-114.84628011102522
6.530285568,0.9994063936483476,-114.9662579325708
6.532571648,0.9995701359905873,-115.0883951174513
6.534857216,0.9997611135755364,-115.213101871755
6.537142784,0.9999671248676255,-115.3407382638799
6.539428352,1.0001749734720302,-115.47132830405592
6.541714432,1.0003715786369558,-115.60491516507186
6.544,1.0005443003850139,-115.74118315255474
6.546285568,1.0006823431573646,-115.87971091859274
6.548571648,1.0007769686478134,-116.01989730165738
6.550857216,1.0008220176515044,-116.16114177236163
6.553142784,1.00081458986878,-116.30263656754472
6.555428352,1.0007552664905834,-116.44365554488073
6.557714432,1.0006476874194197,-116.5834704230391
6.56,1.0004987570011452,-116.72143981769617
6.562285568,1.0003179482014446,-116.85703142633727
6.564571648,1.0001165432727834,-116.98982216819628
6.566857216,0.9999074182198969,-117.11964245228356
6.569142784,0.999704037698397,-117.24642056742485
6.571428352,0.9995189837773691,-117.3704040526164
6.573714432,0.9993641303081341,-117.4919513950589
6.576,0.9992495849942395,-117.61145902815606
6.578285568,0.9991825197185812,-117.7296971990368
6.580571648,0.9991671300417383,-117.84730273358025
6.582857216,0.9992044559816797,-117.96507735574234
6.585142784,0.9992921441523244,-118.08378624134323
6.587428352,0.9994248284660092,-118.20407803139385
6.589714432,0.9995937085102711,-118.32658042777558
6.592,0.9997881418233855,-118.45172650616713
6.594285568,0.9999960334712318,-118.57979351365897
6.596571648,1.0002039141529735,-118.71094373217319
6.598857216,1.0003987504633753,-118.84496349621446
6.601142784,1.0005679252482464,-118.98165005238263
6.603428352,1.0007010700578807,-119.12054412186309
6.605714432,1.000789354855862,-119.26104349565875
6.608,1.0008273714542995,-119.40244388699035
6.610285568,1.0008125916654773,-119.54404326231406
6.612571648,1.0007460182937453,-119.68505332894125
6.614857216,1.0006318892554475,-119.82473356000756
6.617142784,1.0004772307604182,-119.962486468958
6.619428352,1.0002920763503578,-120.09779217843307
6.621714432,1.0000880860972918,-120.23023144888236
6.624,0.9998781934460061,-120.35967763643633
6.626285568,0.9996755952386386,-120.48613835447733
6.628571648,0.9994933286752967,-120.60975918332329
6.630857216,0.9993431325591187,-120.73095937757988
6.633142784,0.9992342550108065,-120.85026064906788
6.635428352,0.9991738886837969,-120.96838198478908
6.637714432,0.9991657115484084,-121.08597309381163
6.64,0.9992105330525329,-121.20383703396672
6.642285568,0.9993051709079505,-121.32269163294792
6.644571648,0.9994438108019983,-121.44326759635013
6.646857216,0.9996176864170888,-121.56609675749188
6.649142784,0.9998156748402538,-121.69167639969127
6.651428352,1.0000251115095407,-121.82019665703702
6.653714432,1.0002328410850303,-121.95176005934293
6.656,1.0004256323657754,-122.08620970261934
6.658285568,1.0005911104289409,-122.22332835185668
6.660571648,1.0007189084500894,-122.36252923014376
6.662857216,1.0008008916374151,-122.50328890456368
6.665142784,1.0008317809024037,-122.64482725404032
6.667428352,1.0008096053095976,-122.78647199642448
6.669714432,1.000735931151712,-122.92740432654671
6.672,1.0006151477091083,-123.06694614563962
6.674285568,1.0004550473890426,-123.204431188699
6.676571648,1.0002658177532162,-123.3394123407601
6.678857216,1.0000592773398302,-123.47146586101732
6.681142784,0.9998487116627296,-123.60047184557618
6.683428352,0.9996474802200032,-123.72651353268769
6.685714432,0.9994683078599463,-123.84978320298966
6.688,0.9993226178977637,-123.97067136716757
6.690285568,0.9992196738658404,-124.08976544853493
6.692571648,0.999166244239445,-124.2077167928398
6.694857216,0.9991654745474094,-124.32526170328047
6.697142784,0.9992175106671448,-124.44314130202173
6.699428352,0.9993190776022159,-124.56219431581206
6.701714432,0.9994638320264599,-124.68303801325844
6.704,0.999642434636058,-124.80619875807575
6.706285568,0.9998435612021631,-124.93215622249151
6.708571648,1.000054458649233,-125.06110532163403
6.710857216,1.000261706884105,-125.19311282343054
6.713142784,1.0004520826351169,-125.32797764101907
6.715428352,1.0006136843363616,-125.4653968780056
6.717714432,1.0007360736474364,-125.60493749871344
6.72,1.0008115023941686,-125.74587856140622
6.722285568,1.0008352225471602,-125.88754755607984
6.724571648,1.0008057039862575,-126.02914886719476
6.726857216,1.0007247426815382,-126.16996252600954
6.729142784,1.00059746392586,-126.30928274546157
6.731428352,1.0004320816205563,-126.44647660646041
6.733714432,1.0002388862591554,-126.58105115369315
6.736,1.0000301203178994,-126.71271425858775
6.738285568,0.9998192601701437,-126.84130403686333
6.740571648,0.9996194272174407,-126.96692672013762
6.742857216,0.9994435690855835,-127.08974633519189
6.745142784,0.9993027646016279,-127.21032550570352
6.747428352,0.9992059974349773,-127.32911997377704
6.749714432,0.9991593401328438,-127.44691507417195
6.752,0.9991660624775514,-127.5643938958187
6.754285568,0.9992254813495568,-127.68233984328157
6.756571648,0.9993339747194905,-127.80153375534805
6.758857216,0.9994845468924715,-127.92258422300301
6.761142784,0.9996677958438229,-128.04608010703308
6.763428352,0.9998719124399064,-128.17240959157914
6.765714432,1.00008401922654,-128.30171298153263
6.768,1.0002905175239336,-128.43411015981943
6.770285568,1.0004783871652074,-128.5693625675923
6.772571648,1.0006357571438071,-128.70711070316284
6.774857216,1.000752454608803,-128.84688209622976
6.777142784,1.0008211839573684,-128.9879641085088
6.779428352,1.0008376422652772,-129.1296842179128
6.781714432,1.0008006937965512,-129.27126303603504
6.784,1.0007126688502972,-129.41192013026668
6.786285568,1.0005790267031434,-129.55099778861168
6.788571648,1.0004083599732514,-129.6877911777115
6.790857216,1.0002113991915773,-129.8219578092963
6.793142784,1.0000007484838496,-129.95318990183173
6.795428352,0.99978968131138,-130.08128986631215
6.797714432,0.999591703912302,-130.20645662774317
6.8,0.9994193393241099,-130.32888746782163
6.802285568,0.9992835231542918,-130.44909136806726
6.804571648,0.9991930536170937,-130.5676186049031
6.806857216,0.9991535392417409,-130.6851907722007
6.809142784,0.9991676903525161,-130.8025630599739
6.811428352,0.999234495298207,-130.9205803868647
6.813714432,0.9993497780548493,-131.03987128528803
6.816,0.9995061249726169,-131.161169102511
6.818285568,0.9996937093484755,-131.2849414886115
6.820571648,0.9999005942096557,-131.41157489044173
6.822857216,1.0001135889652548,-131.54127275456563
6.825142784,1.0003191509080698,-131.67405033120664
6.827428352,1.0005042667435244,-131.80961517299576
6.829714432,1.0006571189044404,-131.9476693353324
6.832,1.0007681443122922,-132.08761471071261
6.834285568,1.000830090797596,-132.22885397625865
6.836571648,1.0008392019337313,-132.37056970708193
6.838857216,1.000794672935949,-132.5120391495915
6.841142784,1.0006994881654818,-132.65249112721548
6.843428352,1.000559640838415,-132.7912461525716
6.845714432,1.0003838775436875,-132.92768692962312
6.848,1.000183493687374,-133.0614178067865
6.850285568,0.999971046560404,-133.19208697705656
6.852571648,0.9997601206827217,-133.31970451313657
6.854857216,0.9995641325544804,-133.44438188540082
6.857142784,0.9993954515237824,-133.56636269967606
6.859428352,0.9992650322092455,-133.68615863086978
6.861714432,0.9991809109202648,-133.80440855315655
6.864,0.9991486804206116,-133.92177924383662
6.866285568,0.9991702831336968,-134.0390669755578
6.868571648,0.9992444040844559,-134.15706910867277
6.870857216,0.9993664590994524,-134.27645270909431
6.873142784,0.9995284501837569,-134.39796882620934
6.875428352,0.9997203167017386,-134.52199117740707
6.877714432,0.999929650154403,-134.6489766188134
6.88,1.0001433452241217,-134.7790180441642
6.882285568,1.0003476915718266,-134.91209667100293
6.884571648,1.0005297403202817,-135.04798395181888
6.886857216,1.0006779773303802,-135.1862776836527
6.889142784,1.0007829571554845,-135.32639632144674
6.891428352,1.0008379906817282,-135.4676714002455
6.893714432,1.0008395922627173,-135.60937649760018
6.896,1.0007876740284865,-135.7507172164965
6.898285568,1.000685427401668,-135.89091288939267
6.900571648,1.0005394438981372,-136.02929511352886
6.902857216,1.0003587773868423,-136.1653183649014
6.905142784,1.0001551271495213,-136.298519480819
6.907428352,0.9999411283596485,-136.4287045610341
6.909714432,0.9997305841023832,-136.55578432862853
6.912,0.9995368332681255,-136.67991927184622
6.914285568,0.9993721580427462,-136.80142985920008
6.916571648,0.999247138097593,-136.92079891847237
6.918857216,0.9991697057883511,-137.0387377660649
6.921142784,0.9991447756127261,-137.15588634019028
