freq,mag,phase
6.0,0.9999985055489183,-150.26576033180993
6.008,0.9999967285598853,-150.62615299965023
6.016,0.99999501222671,-150.98620932049255
6.024,0.9999933553356912,-151.34593289361342
6.032,0.9999917566893853,-151.70532732245266
6.04,0.9999902151064683,-152.06439621449334
6.048,0.9999887294215979,-152.42314318114438
6.056,0.9999872984852736,-152.78157183762607
6.064,0.9999859211637023,-153.13968580285763
6.072,0.999984596338659,-153.49748869934783
6.08,0.9999833229073473,-153.85498415308794
6.088,0.9999820997822666,-154.21217579344716
6.096,0.9999809258910691,-154.5690672530707
6.104,0.9999798001764293,-154.92566216778002
6.112,0.9999787215959018,-155.2819641764757
6.12,0.9999776891217891,-155.6379769210425
6.128,0.9999767017410032,-155.9937040462571
6.136,0.9999757584549315,-156.34914919969773
6.144,0.9999748582793014,-156.70431603165625
6.152,0.9999740002440428,-157.05920819505278
6.16,0.9999731833931585,-157.41382934535193
6.168,0.999972406784585,-157.76818314048188
6.176,0.9999716694900642,-158.12227324075496
6.184,0.9999709705950055,-158.47610330879118
6.192,0.9999703091983564,-158.8296770094429
6.2,0.9999696844124678,-159.1829980097225
6.208,0.9999690953629674,-159.5360699787311
6.216,0.9999685411886208,-159.88889658759058
6.224,0.9999680210412073,-160.2414815093761
6.232,0.9999675340853891,-160.59382841905165
6.24,0.9999670794985792,-160.94594099340725
6.248,0.9999666564708176,-161.2978229109977
6.256,0.9999662642046355,-161.64947785208363
6.264,0.9999659019149355,-162.00090949857423
6.272,0.9999655688288606,-162.35212153397163
6.28,0.999965264185669,-162.70311764331717
6.288,0.9999649872366092,-163.05390151313955
6.296,0.9999647372447938,-163.40447683140445
6.304,0.9999645134850751,-163.75484728746616
6.312,0.9999643152439238,-164.1050165720204
6.32,0.999964141819304,-164.4549883770591
6.328,0.9999639925205528,-164.80476639582704
6.336,0.999963866668257,-165.1543543227791
6.344,0.9999637635941336,-165.5037558535406
6.352,0.9999636826409105,-165.85297468486752
6.36,0.9999636231622062,-166.20201451460917
6.368,0.99996358452241,-166.55087904167237
6.376,0.9999635660965693,-166.89957196598658
6.384,0.9999635672702665,-167.2480969884708
6.392,0.9999635874395063,-167.59645781100156
6.4,0.9999636260106013,-167.9446581363828
6.408,0.9999636824000541,-168.2927016683164
6.416,0.9999637560344441,-168.64059211137456
6.424,0.999963846350319,-168.98833317097314
6.432,0.9999639527940751,-169.33592855334646
6.44,0.9999640748218513,-169.6833819655233
6.448,0.9999642118994196,-170.03069711530367
6.456,0.9999643635020656,-170.37787771123777
6.464,0.999964529114493,-170.72492746260485
6.472,0.999964708230704,-171.07185007939412
6.48,0.9999649003538984,-171.41864927228656
6.4879999999999995,0.9999651049963649,-171.76532875263726
6.496,0.9999653216793738,-172.11189223245992
6.504,0.9999655499330734,-172.45834342441097
6.5120000000000005,0.9999657892963865,-172.80468604177616
6.52,0.9999660393169058,-173.15092379845657
6.5280000000000005,0.9999662995507909,-173.49706040895737
6.536,0.9999665695626669,-173.84309958837568
6.5440000000000005,0.9999668489255247,-174.18904505239087
6.552,0.9999671372206176,-174.53490051725439
6.5600000000000005,0.999967434037365,-174.88066969978192
6.568,0.9999677389732536,-175.22635631734477
6.5760000000000005,0.9999680516337367,-175.5719640878637
6.584,0.9999683716321407,-175.91749672980194
6.592,0.9999686985895655,-176.26295796216027
6.6,0.9999690321347932,-176.60835150447213
6.608,0.9999693719041907,-176.9536810767996
6.616,0.9999697175416161,-177.29895039973013
6.624,0.9999700686983254,-177.64416319437407
6.632,0.9999704250328838,-177.98932318236234
6.64,0.999970786211069,-178.33443408584537
6.648,0.9999711519057838,-178.67949962749222
6.656,0.9999715217969672,-179.02452353049043
6.664,0.999971895571503,-179.36950951854624
6.672,0.9999722729231322,-179.71446131588573
6.68,0.999972653552366,179.9406173527439
6.688,0.9999730371663997,179.59572276207257
6.696,0.999973423479026,179.2508511863047
6.704,0.9999738122105496,178.90599889911658
6.712,0.9999742030877035,178.56116217365326
6.72,0.9999745958435655,178.2163372825246
6.728,0.9999749902174753,177.87152049780173
6.736,0.9999753859549513,177.52670809101232
6.744,0.9999757828076118,177.18189633313625
6.752,0.9999761805330908,176.8370814946003
6.76,0.9999765788949624,176.49225984527334
6.768,0.999976977662659,176.14742765446033
6.776,0.9999773766113932,175.80258119089692
6.784,0.9999777755220808,175.45771672274338
6.792,0.9999781741812643,175.11283051757843
6.8,0.9999785723810356,174.76791884239276
6.808,0.9999789699189621,174.42297796358284
6.816,0.9999793665980097,174.078004146944
6.824,0.9999797622264726,173.732993657664
6.832,0.9999801566178952,173.38794276031584
6.84,0.9999805495910039,173.0428477188512
6.848,0.9999809409696327,172.69770479659343
6.856,0.9999813305826527,172.35251025623054
6.864,0.9999817182639018,172.00726035980836
6.872,0.9999821038521144,171.66195136872355
6.88,0.9999824871908529,171.3165795437168
6.888,0.9999828681284388,170.97114114486604
6.896,0.9999832465178856,170.6256324315796
6.904,0.9999836222168302,170.2800496625898
6.912,0.999983995087468,169.93438909594641
6.92,0.9999843649964865,169.58864698901033
6.928,0.999984731815,169.2428195984475
6.936,0.9999850954184855,168.896903180223
6.944,0.9999854556867178,168.5508939895953
6.952,0.9999858125037082,168.2047882811108
6.96,0.9999861657576399,167.85858230859884
6.968,0.9999865153408067,167.51227232516655
6.976,0.9999868611495525,167.16585458319443
6.984,0.9999872030842091,166.8193253343321
6.992,0.9999875410490371,166.47268082949435
7.0,0.9999878749521662,166.12591731885777
7.008,0.9999882047055353,165.77903105185752
7.016,0.9999885302248359,165.4320182771848
7.024,0.9999888514294528,165.08487524278445
7.032,0.999989168242407,164.7375981958535
7.04,0.9999894805903004,164.39018338283967
7.048,0.9999897884032585,164.04262704944068
7.056,0.999990091614875,163.69492544060424
7.064,0.9999903901621576,163.34707480052822
7.072,0.9999906839854728,162.99907137266175
7.08,0.9999909730284932,162.65091139970684
7.088,0.9999912572381425,162.30259112362052
7.096,0.9999915365645449,161.9541067856177
7.104,0.9999918109609708,161.60545462617492
7.112,0.9999920803837865,161.25663088503438
7.12,0.999992344792403,160.9076318012092
7.128,0.9999926041492238,160.55845361298896
7.136,0.9999928584195982,160.20909255794643
7.144,0.9999931075717663,159.85954487294495
7.152,0.9999933515768168,159.50980679414633
7.16,0.9999935904086317,159.15987455702023
7.168,0.9999938240438423,158.80974439635398
7.176,0.9999940524617803,158.45941254626325
7.184,0.9999942756444308,158.10887524020401
7.192,0.9999944935763856,157.75812871098512
7.2,0.9999947062447962,157.40716919078216
7.208,0.9999949136393294,157.05599291115192
7.216,0.9999951157521212,156.70459610304837
7.224,0.9999953125777331,156.3529749968392
7.232,0.9999955041131054,156.00112582232396
7.24,0.9999956903575152,155.64904480875276
7.248,0.9999958713125326,155.2967281848467
7.256,0.9999960469819772,154.94417217881895
7.264,0.9999962173718754,154.59137301839706
7.272,0.9999963824904189,154.23832693084722
7.28,0.999996542347923,153.8850301429985
7.288,0.9999966969567831,153.53147888126952
7.296,0.9999968463314366,153.17766937169583
7.304,0.9999969904883214,152.8235978399586
7.312,0.9999971294458345,152.46926051141503
7.32,0.9999972632242943,152.11465361112968
7.328,0.9999973918458989,151.75977336390764
7.336,0.9999975153346901,151.4046159943287
7.344,0.9999976337165113,151.04917772678343
7.352,0.9999977470189724,150.69345478551045
7.36,0.9999978552714103,150.33744339463533
7.368,0.9999979585048523,149.98113977821097
7.376,0.999998056751977,149.62454016025964
7.384,0.9999981500470813,149.26764076481672
7.392,0.9999982384260406,148.91043781597574
7.4,0.9999983219262735,148.55292753793546
7.4079999999999995,0.999998400586708,148.1951061550485
7.416,0.9999984744477429,147.8369698918715
7.4239999999999995,0.9999985435512168,147.47851497321767
7.432,0.9999986079403698,147.11973762421002
7.4399999999999995,0.9999986676598109,146.7606340703379
7.448,0.999998722755484,146.40120053751363
7.4559999999999995,0.9999987732746342,146.04143325213295
7.464,0.9999988192657734,145.68132844113543
7.4719999999999995,0.999998860778649,145.32088233206855
7.48,0.9999988978642093,144.96009115315238
7.4879999999999995,0.9999989305745719,144.5989511333473
7.496,0.9999989589629924,144.23745850242298
7.504,0.9999989830838306,143.87560949103005
7.5120000000000005,0.9999990029925215,143.51340033077332
7.52,0.9999990187455413,143.1508272542877
7.5280000000000005,0.9999990304003784,142.78788649531555
7.536,0.9999990380155016,142.42457428878726
7.5440000000000005,0.9999990416503303,142.06088687090275
7.552,0.9999990413652046,141.6968204792167
7.5600000000000005,0.9999990372213546,141.33237135272464
7.568,0.9999990292808704,140.96753573195258
7.5760000000000005,0.9999990176066751,140.60230985904803
7.584,0.9999990022624932,140.2366899778744
7.5920000000000005,0.9999989833128227,139.87067233410656
7.6,0.9999989608229074,139.50425317533052
7.6080000000000005,0.9999989348587064,139.13742875114363
7.616,0.999998905486869,138.7701953132595
7.6240000000000006,0.9999988727747038,138.40254911561323
7.632,0.9999988367901529,138.03448641447142
7.640000000000001,0.9999987976017651,137.6660034685427
7.648,0.9999987552786669,137.29709653909308
7.656000000000001,0.9999987098905369,136.92776189006196
7.664,0.9999986615075789,136.55799578818252
7.672,0.9999986102004955,136.18779450310367
7.68,0.9999985560404615,135.81715430751578
7.688,0.9999984990990984,135.44607147727854
7.696,0.9999984394484487,135.07454229155198
7.704,0.9999983771609491,134.7025630329305
7.712,0.9999983123094074,134.33012998757968
7.72,0.999998244966975,133.95723944537608
7.728,0.9999981752071235,133.58388770005027
7.736,0.9999981031036194,133.21007104933253
7.744,0.9999980287304998,132.83578579510203
7.752,0.9999979521620475,132.46102824353898
7.76,0.9999978734727675,132.08579470527977
7.768,0.9999977927373629,131.71008149557568
7.776,0.9999977100307107,131.3338849344544
7.784,0.9999976254278393,130.95720134688526
7.792,0.9999975390039029,130.58002706294724
7.8,0.9999974508341618,130.2023584180009
7.808,0.9999973609939562,129.82419175286313
7.816,0.999997269558684,129.44552341398574
7.824,0.9999971766037794,129.06634975363716
7.832,0.9999970822046901,128.68666713008798
7.84,0.9999969864368533,128.30647190779962
7.848,0.9999968893756758,127.92576045761669
7.856,0.9999967910965111,127.54452915696312
7.864,0.9999966916746362,127.1627743900416
7.872,0.9999965911852331,126.78049254803693
7.88,0.9999964897033642,126.3976800293228
7.888,0.9999963873039529,126.01433323967251
7.896,0.9999962840617618,125.63044859247333
7.904,0.9999961800513718,125.24602250894472
7.912,0.9999960753471611,124.86105141836012
7.92,0.9999959700232846,124.475531758273
7.928,0.9999958641536543,124.08945997474645
7.936,0.9999957578119171,123.70283252258683
7.944,0.999995651071436,123.31564586558133
7.952,0.9999955440052701,122.92789647673956
7.96,0.9999954366861539,122.539580838539
7.968,0.9999953291864783,122.15069544317463
7.976,0.9999952215782701,121.76123679281268
7.984,0.9999951139331741,121.37120139984822
7.992,0.9999950063224324,120.98058578716719
8.0,0.9999948988168653,120.58938648841236
8.008,0.9999947914868534,120.1976000482536
8.016,0.9999946844023184,119.8052230226621
8.024000000000001,0.9999945776327032,119.41225197918948
8.032,0.9999944712469552,119.0186834972504
8.04,0.9999943653135062,118.62451416840982
8.048,0.9999942599002558,118.22974059667443
8.056000000000001,0.9999941550745525,117.83435939878899
8.064,0.9999940509031748,117.4383672045363
8.072,0.9999939474523155,117.04176065704156
8.08,0.9999938447875623,116.64453641308187
8.088000000000001,0.9999937429738808,116.2466911433996
8.096,0.9999936420755977,115.84822153302036
8.104,0.9999935421563827,115.44912428157521
8.112,0.9999934432792327,115.04939610362761
8.120000000000001,0.9999933455064527,114.64903372900528
8.128,0.9999932488996421,114.24803390313569
8.136,0.9999931535196753,113.84639338738666
8.144,0.9999930594266868,113.44410895941134
8.152000000000001,0.9999929666800544,113.04117741349822
8.16,0.9999928753383834,112.6375955609251
8.168,0.9999927854594906,112.23336023031776
8.176,0.9999926971003871,111.82846826801358
8.184000000000001,0.9999926103172654,111.42291653842973
8.192,0.9999925251654809,111.0167019244358
8.2,0.999992441699539,110.60982132773086
8.208,0.9999923599730782,110.20227166922561
8.216000000000001,0.9999922800388561,109.79404988942933
8.224,0.9999922019487338,109.38515294884077
8.232,0.999992125753662,108.97557782834411
8.24,0.9999920515036658,108.56532152960965
8.248000000000001,0.9999919792478305,108.15438107549915
8.256,0.9999919090342876,107.74275351047572
8.264,0.9999918409102009,107.33043590101815
8.272,0.9999917749217523,106.91742533604018
8.280000000000001,0.9999917111141285,106.50371892731467
8.288,0.9999916495315073,106.08931380990174
8.296,0.999991590217044,105.6742071425818
8.304,0.9999915332128597,105.25839610829335
8.312,0.9999914785600261,104.84187791457555
8.32,0.9999914262985549,104.42464979401439
8.328,0.9999913764673845,104.00670900469491
8.336,0.9999913291043669,103.58805283065641
8.344,0.9999912842462568,103.16867858235362
8.352,0.9999912419286995,102.7485835971209
8.36,0.999991202186218,102.3277652396425
8.368,0.9999911650522029,101.90622090242563
8.376,0.9999911305589005,101.48394800627948
8.384,0.9999910987374018,101.06094400079714
8.392,0.9999910696176313,100.63720636484334
8.4,0.9999910432283371,100.21273260704508
8.408,0.9999910195970794,99.78752026628784
8.416,0.9999909987502221,99.3615669122147
8.424,0.9999909807129205,98.93487014573103
8.432,0.9999909655091138,98.50742759951194
8.44,0.9999909531615138,98.07923693851514
8.448,0.9999909436915975,97.65029586049647
8.456,0.9999909371195964,97.22060209653085
8.464,0.999990933464489,96.79015341153577
8.472,0.9999909327439915,96.3589476047999
8.48,0.9999909349745507,95.92698251051425
8.488,0.9999909401713339,95.49425599830849
8.496,0.9999909483482244,95.06076597378939
8.504,0.9999909595178117,94.62651037908432
8.512,0.9999909736913847,94.19148719338702
8.52,0.9999909908789258,93.75569443350801
8.528,0.999991011089104,93.31913015442711
8.536,0.9999910343292681,92.88179244985055
8.544,0.9999910606054406,92.44367945276998
8.552,0.9999910899223139,92.00478933602596
8.56,0.9999911222832432,91.56512031287305
8.568,0.9999911576902412,91.1246706375492
8.576,0.9999911961439751,90.68343860584667
8.584,0.9999912376437612,90.24142255568705
8.592,0.9999912821875606,89.79862086769738
8.6,0.9999913297719756,89.35503196579036
8.608,0.9999913803922471,88.91065431774545
8.616,0.9999914340422507,88.46548643579376
8.624,0.9999914907144938,88.01952687720353
8.632,0.9999915504001146,87.57277424486936
8.64,0.9999916130888789,87.1252271879016
8.648,0.9999916787691784,86.67688440221927
8.656,0.9999917474280307,86.22774463114303
8.664,0.9999918190510764,85.77780666599119
8.672,0.9999918936225811,85.32706934667563
8.68,0.999991971125433,84.87553156230044
8.688,0.9999920515411447,84.42319225176027
8.696,0.9999921348498528,83.97005040434092
8.704,0.9999922210303196,83.51610506031945
8.712,0.9999923100599346,83.0613553115663
8.72,0.9999924019147157,82.6058003021464
8.728,0.9999924965693124,82.14943922892222
8.736,0.9999925939970079,81.69227134215525
8.744,0.9999926941697223,81.2342959461092
8.752,0.9999927970580157,80.77551239965123
8.76,0.9999929026310933,80.31592011685466
8.768,0.9999930108568096,79.85551856759918
8.776,0.9999931217016717,79.39430727817223
8.784,0.9999932351308468,78.93228583186769
8.792,0.9999933511081658,78.469453869585
8.8,0.9999934695961318,78.00581109042542
8.808,0.999993590555925,77.54135725228849
8.815999999999999,0.9999937139474103,77.07609217246488
8.824,0.9999938397291452,76.61001572822876
8.832,0.999993967858388,76.14312785742756
8.84,0.9999940982911055,75.67542855906923
8.847999999999999,0.9999942309819833,75.20691789390662
8.856,0.9999943658844336,74.73759598501977
8.864,0.999994502950607,74.26746301839498
8.872,0.9999946421314019,73.79651924350017
8.879999999999999,0.9999947833764757,73.32476497385697
8.888,0.9999949266342567,72.85220058760929
8.896,0.9999950718519551,72.37882652808794
8.904,0.9999952189755767,71.9046433043708
8.911999999999999,0.999995367949935,71.42965149183831
8.92,0.9999955187186654,70.95385173272487
8.928,0.9999956712242378,70.47724473666518
8.936,0.9999958254079729,69.999831281235
8.943999999999999,0.9999959812100563,69.5216122124864
8.952,0.9999961385695539,69.04258844547792
8.96,0.9999962974244284,68.56276096479836
8.968,0.9999964577115559,68.08213082508439
8.975999999999999,0.9999966193667422,67.60069915153126
8.984,0.9999967823247414,67.11846714039733
8.992,0.9999969465192733,66.63543605950166
9.0,0.9999971118830426,66.15160724871355
9.008,0.9999972783477578,65.66698212043484
9.016,0.999997445844151,65.18156216007452
9.024000000000001,0.9999976143019971,64.69534892651532
9.032,0.9999977836501367,64.20834405257145
9.04,0.999997953816495,63.72054924543747
9.048,0.9999981247281055,63.231966287128884
9.056000000000001,0.9999982963111301,62.742597034913196
9.064,0.9999984684908845,62.25244342173113
9.072,0.9999986411918588,61.761507456607966
9.08,0.9999988143377437,61.26979122505515
9.088000000000001,0.9999989878514526,60.777296889461574
9.096,0.9999991616551483,60.28402668947356
9.104,0.9999993356702664,59.78998294236407
9.112,0.9999995098175433,59.29516804339081
9.120000000000001,0.9999996840170404,58.799584466143024
9.128,0.9999998581881714,58.30323476287584
9.136,0.9999999999999998,57.8061215648324
9.144,1.0,57.30824758255429
9.152000000000001,1.0,56.809615606178866
9.16,1.0,56.31022850572345
9.168,1.0,55.81008923135605
9.176,0.9999999999999999,55.30920081365303
9.184000000000001,1.0,54.8075663638429
9.192,0.9999999999999999,54.305189074035525
9.2,1.0,53.80207221743699
9.208,1.0,53.29821914855001
9.216000000000001,1.0,52.79363330335966
9.224,0.9999999999999999,52.28831819950322
9.232,1.0,51.78227743642458
9.24,1.0,51.275514695513316
9.248000000000001,1.0,50.7680337402278
9.256,1.0,50.25983841620138
9.264,1.0,49.75093265133227
9.272,1.0,49.24132045585686
9.280000000000001,0.9999999999999999,48.73100592240609
9.288,1.0,48.21999322604409
9.296,0.9999999999999999,47.708286624289215
9.304,1.0,47.19589045711788
9.312000000000001,1.0,46.682809146950234
9.32,1.0,46.16904719861732
9.328,1.0,45.65460919930968
9.336,1.0,45.13949981850784
9.344,0.9999999999999999,44.62372380789403
9.352,1.0,44.10728600124361
9.36,0.9999999999999999,43.59019131429908
9.368,1.0,43.07244474462277
9.376,0.9999999999999999,42.554051371431626
9.384,0.9999999999999999,42.035016355410576
9.392,0.9999999999999998,41.51534493850751
9.4,0.9999999999999999,40.99504244370646
9.408,0.9999999999999998,40.47411427478227
9.416,1.0,39.952565916032974
9.424,1.0,39.43040293199354
9.432,0.9999999999999999,38.90763096712686
9.44,1.0,38.38425574549604
9.448,0.9999999999999999,37.860283070413715
9.456,0.9999999999999999,37.33571882407221
9.464,1.0,36.8105689671508
9.472,1.0,36.28483953840346
9.48,1.0,35.75853665422368
9.488,1.0,35.23166650818953
9.496,0.9999999999999999,34.704235370585664
9.504,1.0,34.1762495879056
9.512,1.0,33.647715582330726
9.52,1.0,33.118639851189464
9.528,0.9999999999999999,32.58902896639337
9.536,0.9999999999999999,32.058889573853136
9.544,0.9999999999999998,31.528228392871554
9.552,1.0,30.997052215516558
9.56,0.9999999999999999,30.465367905971068
9.568,0.9999999999999999,29.93318239986316
9.576,1.0,29.400502703572936
9.584,0.9999999999999998,28.867335893520053
9.592,1.0,28.333689115427855
9.6,1.0,27.799569583568434
9.608,1.0,27.264984579984564
9.616,1.0,26.729941453692522
9.624,0.9999999999999999,26.194447619862192
9.632,1.0,25.65851055897832
9.64,1.0,25.122137815979112
9.648,0.9999999999999999,24.58533699937651
9.656,1.0,24.04811578035406
9.664,1.0,23.51048189184661
9.672,1.0,22.97244312759825
9.68,0.9999999999999999,22.434007341202328
9.688,1.0,21.89518244512006
