freq,mag,phase
6.0,0.9999915379820669,60.19410739196537
6.008,0.9999918151248813,60.03044799559626
6.016,0.9999920850858695,59.86677603312526
6.024,0.9999923480031527,59.70309149454825
6.032,0.9999926040130177,59.53939436998061
6.04,0.999992853249932,59.37568464965723
6.048,0.9999930958465569,59.21196232393249
6.056,0.9999933319337627,59.04822738328024
6.064,0.9999935616406427,58.88447981829381
6.072,0.9999937850945264,58.72071961968599
6.08,0.9999940024209965,58.556946778289
6.088,0.9999942137438999,58.39316128505449
6.096,0.999994419185363,58.22936313105349
6.104,0.999994618865807,58.065552307476366
6.112,0.9999948129039595,57.90172880563285
6.12,0.9999950014168706,57.7378926169519
6.128,0.9999951845199263,57.57404373298179
6.136,0.9999953623268611,57.41018214538993
6.144,0.9999955349497743,57.24630784596292
6.152,0.9999957024991415,57.082420826606395
6.16,0.99999586508383,56.91852107934515
6.168,0.9999960228111112,56.75460859632282
6.176,0.9999961757866763,56.590683369802036
6.184,0.9999963241146475,56.4267453921643
6.192,0.9999964678975932,56.26279465590979
6.2,0.9999966072365417,56.0988311536575
6.208,0.9999967422309939,55.93485487814498
6.216,0.9999968729789375,55.77086582222837
6.224,0.9999969995768594,55.60686397888223
6.232,0.9999971221197607,55.442849341199505
6.24,0.9999972407011694,55.278821902391456
6.248,0.9999973554131523,55.114781655787496
6.256,0.999997466346331,54.95072859483509
6.264,0.9999975735898928,54.78666271309979
6.272,0.9999976772316055,54.622584004264944
6.28,0.9999977773578294,54.45849246213168
6.288,0.9999978740535306,54.29438808061883
6.296,0.999997967402295,54.130270853762724
6.304,0.9999980574863405,53.96614077571718
6.312,0.9999981443865295,53.80199784075324
6.32,0.9999982281823835,53.6378420432592
6.328,0.9999983089520942,53.473673377740376
6.336,0.999998386772537,53.30949183881899
6.344,0.9999984617192846,53.1452974212341
6.352,0.9999985338666181,52.981090119841355
6.36,0.9999986032875409,52.816869929613
6.368,0.999998670053792,52.652636845637545
6.376,0.9999987342358557,52.488390863119776
6.384,0.9999987959029778,52.324131977380546
6.392,0.999998855123176,52.15986018385662
6.4,0.9999989119632519,51.99557547810052
6.408,0.9999989664888054,51.83127785578037
6.416,0.999999018764245,51.66696731267975
6.424,0.999999068852802,51.50264384469749
6.432,0.9999991168165406,51.33830744784752
6.44,0.9999991627163728,51.17395811825878
6.448,0.9999992066120672,51.00959585217487
6.456,0.9999992485622645,50.84522064595406
6.464,0.9999992886244874,50.680832496068966
6.472,0.9999993268551534,50.5164313991065
6.48,0.9999993633095858,50.352017351767536
6.4879999999999995,0.9999993980420284,50.18759035086689
6.496,0.9999994311056531,50.023150393332934
6.504,0.9999994625525757,49.85869747620761
6.5120000000000005,0.9999994924338643,49.69423159664604
6.52,0.9999995207995542,49.52975275191655
6.5280000000000005,0.9999995476986572,49.36526093940017
6.536,0.9999995731791742,49.200756156590785
6.5440000000000005,0.9999995972881061,49.03623840109456
6.552,0.9999996200714668,48.87170767063007
6.5600000000000005,0.9999996415742923,48.707163963027824
6.568,0.9999996618406543,48.54260727623025
6.5760000000000005,0.99999968091367,48.37803760829129
6.584,0.9999996988355144,48.21345495737635
6.592,0.9999997156474312,48.048859321761974
6.6,0.9999997313897439,47.88425069983565
6.608,0.9999997461018665,47.71962909009561
6.616,0.9999997598223149,47.554994491150545
6.624,0.9999997725887194,47.39034690171941
6.632,0.999999784437833,47.2256863206312
6.64,0.9999997954055437,47.06101274682469
6.648,0.9999998055268859,46.89632617934819
6.656,0.99999981483605,46.731626617359325
6.664,0.9999998233663939,46.566914060124766
6.672,0.9999998311504541,46.40218850702005
6.68,0.9999998382199543,46.23744995752922
6.688,0.9999998446058191,46.07269841124467
6.696,0.9999998503381821,45.907933867866866
6.704,0.9999998554463965,45.74315632720406
6.712,0.9999998599590476,45.57836578917209
6.72,0.9999998639039606,45.41356225379407
6.728,0.9999998673082123,45.248745721200116
6.736,0.9999998701981413,45.08391619162718
6.744,0.9999998725993579,44.91907366541868
6.752,0.9999998745367539,44.75421814302428
6.76,0.9999998760345135,44.58934962499962
6.768,0.9999998771161228,44.42446811200599
6.776,0.99999987780438,44.25957360481014
6.784,0.9999998781214052,44.09466610428399
6.792,0.9999998780886498,43.92974561140431
6.8,0.9999998777269073,43.76481212725242
6.808,0.9999998770563222,43.59986565301398
6.816,0.9999998760964001,43.434906189978705
6.824,0.9999998748660172,43.269933739539994
6.832,0.9999998733834294,43.10494830319473
6.84,0.9999998716662831,42.939949882542955
6.848,0.9999998697316235,42.77493847928759
6.856,0.9999998675959036,42.60991409523411
6.864,0.9999998652749957,42.44487673229032
6.872,0.999999862784198,42.27982639246597
6.88,0.9999998601382456,42.11476307787253
6.888,0.999999857351319,41.94968679072285
6.896,0.9999998544370535,41.784597533330896
6.904,0.9999998514085484,41.61949530811138
6.912,0.9999998482783744,41.45438011757953
6.92,0.9999998450585852,41.28925196435076
6.928,0.9999998417607248,41.12411085114034
6.936,0.9999998383958358,40.95895678076308
6.944,0.9999998349744693,40.79378975613308
6.952,0.999999831506693,40.628609780263375
6.96,0.9999998280021003,40.46341685626561
6.968,0.9999998244698184,40.29821098734974
6.976,0.9999998209185169,40.13299217682371
6.984,0.9999998173564161,39.96776042809317
6.992,0.9999998137912965,39.802515744661115
7.0,0.9999998102305054,39.63725813012752
7.008,0.9999998066809666,39.471987588189165
7.016,0.9999998031491881,39.306704122639154
7.024,0.99999979964127,39.141407737366706
7.032,0.9999997961629129,38.97609843635669
7.04,0.9999997927194265,38.810776223689494
7.048,0.9999997893157363,38.64544110354051
7.056,0.9999997859563927,38.48009308017995
7.064,0.9999997826455778,38.31473215797237
7.072,0.9999997793871148,38.14935834137647
7.08,0.9999997761844738,37.98397163494468
7.088,0.9999997730407814,37.81857204332287
7.096,0.9999997699588267,37.65315957124998
7.104,0.9999997669410697,37.48773422355769
7.112,0.9999997639896486,37.32229600517011
7.12,0.9999997611063878,37.15684492110342
7.128,0.9999997582928046,36.99138097646551
7.136,0.999999755550116,36.82590417645567
7.144,0.9999997528792479,36.66041452636426
7.152,0.9999997502808404,36.49491203157229
7.16,0.9999997477552561,36.32939669755118
7.168,0.9999997453025861,36.163868529862384
7.176,0.9999997429226584,35.998327534156935
7.184,0.999999740615044,35.83277371617527
7.192,0.9999997383790641,35.667207081746774
7.2,0.9999997362137962,35.50162763678946
7.208,0.9999997341180824,35.33603538730959
7.216,0.9999997320905346,35.17043033940145
7.224,0.9999997301295422,35.00481249924676
7.232,0.9999997282332784,34.839181873114605
7.24,0.9999997263997068,34.67353846736081
7.248,0.9999997246265871,34.50788228842782
7.256,0.9999997229114833,34.34221334284421
7.264,0.9999997212517682,34.17653163722436
7.272,0.9999997196446303,34.01083717826811
7.28,0.9999997180870814,33.84512997276042
7.288,0.9999997165759609,33.67941002757095
7.296,0.9999997151079426,33.513677349653804
7.304,0.9999997136795411,33.34793194604705
7.312,0.9999997122871177,33.18217382387249
7.32,0.9999997109268864,33.01640299033521
7.328,0.9999997095949194,32.850619452723215
7.336,0.9999997082871529,32.68482321840719
7.344,0.9999997069993934,32.519014294840005
7.352,0.9999997057273237,32.35319268955636
7.36,0.999999704466507,32.18735841017252
7.368,0.9999997032123946,32.021511464385945
7.376,0.9999997019603298,31.8556518599748
7.384,0.9999997007055541,31.6897796047977
7.392,0.9999996994432123,31.523894706793364
7.4,0.999999698168358,31.357997173980177
7.4079999999999995,0.9999996968759595,31.192087014455904
7.416,0.999999695560904,31.026164236397204
7.4239999999999995,0.9999996942180029,30.86022884805949
7.432,0.9999996928419985,30.69428085777623
7.4399999999999995,0.9999996914275668,30.528320273959025
7.448,0.9999996899693238,30.36234710509674
7.4559999999999995,0.9999996884618305,30.196361359755624
7.464,0.9999996868995971,30.030363046578536
7.4719999999999995,0.9999996852770884,29.86435217428492
7.48,0.9999996835887289,29.69832875167014
7.4879999999999995,0.9999996818289064,29.532292787605407
7.496,0.9999996799919774,29.366244291037116
7.504,0.9999996780722717,29.200183270986784
7.5120000000000005,0.9999996760640969,29.034109736550388
7.52,0.9999996739617426,28.868023696898288
7.5280000000000005,0.9999996717594855,28.701925161274573
7.536,0.9999996694515925,28.535814138996987
7.5440000000000005,0.9999996670323263,28.369690639456277
7.552,0.9999996644959492,28.203554672116148
7.5600000000000005,0.9999996618367272,28.03740624651252
7.568,0.9999996590489342,27.87124537225355
7.5760000000000005,0.9999996561268559,27.705072059018928
7.584,0.9999996530647941,27.538886316559807
7.5920000000000005,0.9999996498570703,27.372688154698174
7.6,0.9999996464980307,27.206477583326734
7.6080000000000005,0.9999996429820481,27.040254612408294
7.616,0.9999996393035274,26.874019251975685
7.6240000000000006,0.9999996354569092,26.707771512131064
7.632,0.9999996314366715,26.541511403045913
7.640000000000001,0.9999996272373365,26.375238934960343
7.648,0.9999996228534713,26.208954118183
7.656000000000001,0.9999996182796939,26.042656963090483
7.664,0.999999613510674,25.876347480127205
7.672,0.9999996085411385,25.710025679804797
7.68,0.9999996033658738,25.543691572701928
7.688,0.9999995979797304,25.37734516946385
7.696,0.9999995923776233,25.21098648080211
7.704,0.9999995865545386,25.04461551749409
7.712,0.9999995805055345,24.878232290382766
7.72,0.999999574225745,24.71183681037623
7.728,0.9999995677103826,24.545429088447435
7.736,0.9999995609547414,24.379009135633773
7.744,0.9999995539542008,24.212576963036735
7.752,0.9999995467042261,24.046132581821578
7.76,0.9999995392003748,23.87967600321693
7.768,0.9999995314382958,23.713207238514457
7.776,0.9999995234137344,23.546726299068503
7.784,0.9999995151225339,23.380233196295734
7.792,0.9999995065606386,23.213727941674804
7.8,0.9999994977240962,23.047210546745955
7.808,0.9999994886090597,22.88068102311072
7.816,0.9999994792117912,22.714139382431558
7.824,0.999999469528663,22.547585636431435
7.832,0.9999994595561602,22.381019796893607
7.84,0.9999994492908835,22.214441875661127
7.848,0.9999994387295507,22.047851884636593
7.856,0.999999427868999,21.881249835781784
7.864,0.9999994167061877,21.714635741117274
7.872,0.9999994052381997,21.54800961272212
7.88,0.9999993934622436,21.381371462733497
7.888,0.9999993813756558,21.214721303346387
7.896,0.9999993689759015,21.04805914681321
7.904,0.9999993562605783,20.88138500544344
7.912,0.9999993432274163,20.714698891603373
7.92,0.9999993298742814,20.54800081771566
7.928,0.9999993161991749,20.38129079625906
7.936,0.9999993022002377,20.214568839768067
7.944,0.9999992878757493,20.047834960832553
7.952,0.9999992732241316,19.881089172097447
7.96,0.9999992582439491,19.714331486262427
7.968,0.9999992429339104,19.547561916081538
7.976,0.9999992272928705,19.380780474362883
7.984,0.9999992113198306,19.21398717396828
7.992,0.999999195013941,19.04718202781295
8.0,0.9999991783745014,18.880365048865155
8.008,0.999999161400962,18.713536250145907
8.016,0.9999991440929259,18.546695644728544
8.024000000000001,0.9999991264501483,18.379843245738563
8.032,0.9999991084725393,18.212979066353206
8.04,0.9999990901601634,18.04610311980106
8.048,0.9999990715132424,17.8792154193618
8.056000000000001,0.9999990525321535,17.712315978365943
8.064,0.9999990332174332,17.545404810194473
8.072,0.9999990135697763,17.378481928278386
8.08,0.9999989935900367,17.211547346098534
8.088000000000001,0.9999989732792294,17.044601077185302
8.096,0.9999989526385294,16.877643135118245
8.104,0.9999989316692736,16.710673533525718
8.112,0.9999989103729611,16.5436922860846
8.120000000000001,0.9999988887512533,16.376699406520085
8.128,0.9999988668059759,16.20969490860526
8.136,0.9999988445391168,16.042678806160776
8.144,0.999998821952829,15.875651113054547
8.152000000000001,0.9999987990494296,15.708611843201568
8.16,0.9999987758314001,15.541561010563505
8.168,0.9999987523013874,15.37449862914833
8.176,0.9999987284622037,15.207424713010086
8.184000000000001,0.9999987043168265,15.040339276248659
8.192,0.9999986798683994,14.873242333009376
8.2,0.9999986551202309,14.706133897482708
8.208,0.9999986300757959,14.53901398390396
8.216000000000001,0.9999986047387346,14.37188260655308
8.224,0.999998579112854,14.204739779754307
8.232,0.9999985532021255,14.03758551787578
8.24,0.9999985270106871,13.870419835329335
8.248000000000001,0.9999985005428425,13.70324274657027
8.256,0.9999984738030596,13.536054266097004
8.264,0.9999984467959726,13.368854408450696
8.272,0.9999984195263797,13.201643188215034
8.280000000000001,0.9999983919992442,13.034420620016043
8.288,0.9999983642196931,12.867186718521701
8.296,0.999998336193018,12.6999414984416
8.304,0.9999983079246728,12.532684974526749
8.312,0.9999982794202756,12.365417161569363
8.32,0.999998250685606,12.198138074402385
8.328,0.9999982217266057,12.030847727899467
8.336,0.999998192549378,11.863546136974414
8.344,0.999998163160187,11.696233316581198
8.352,0.9999981335654572,11.528909281713396
8.36,0.999998103771771,11.361574047404245
8.368,0.9999980737858714,11.194227628726011
8.376,0.9999980436146582,11.026870040790094
8.384,0.9999980132651887,10.859501298746423
8.392,0.9999979827446761,10.692121417783506
8.4,0.99999795206049,10.524730413127854
8.408,0.999997921220154,10.357328300044045
8.416,0.999997890231345,10.189915093834161
8.424,0.9999978591018929,10.02249080983782
8.432,0.9999978278397793,9.855055463431631
8.44,0.9999977964531362,9.68760907002924
8.448,0.999997764950246,9.520151645080782
8.456,0.999997733339538,9.352683204072925
8.464,0.9999977016295905,9.185203762528339
8.472,0.9999976698291265,9.017713336005736
8.48,0.9999976379470152,8.850211940099326
8.488,0.9999976059922686,8.682699590438885
8.496,0.9999975739740417,8.515176302689216
8.504,0.9999975419016301,8.347642092550192
8.512,0.9999975097844702,8.180096975756245
8.52,0.9999974776321359,8.012540968076422
8.528,0.999997445454339,7.844974085313842
8.536,0.9999974132609258,7.677396343305782
8.544,0.9999973810618785,7.509807757923136
8.552,0.9999973488673107,7.34220834507049
8.56,0.9999973166874683,7.174598120685608
8.568,0.9999972845327258,7.006977100739489
8.576,0.9999972524135866,6.83934530123587
8.584,0.9999972203406805,6.671702738211274
8.592,0.9999971883247626,6.504049427734527
8.6,0.9999971563767106,6.33638538590682
8.608,0.9999971245075243,6.1687106288612075
8.616,0.9999970927283237,6.001025172762675
8.624,0.9999970610503461,5.833329033807659
8.632,0.9999970294849465,5.665622228224115
8.64,0.9999969980435937,5.49790477227102
8.648,0.9999969667378694,5.3301766822384655
8.656,0.9999969355794671,5.162437974447162
8.664,0.9999969045801886,4.9946886652485265
8.672,0.9999968737519436,4.826928771024198
8.68,0.9999968431067474,4.659158308186123
8.688,0.999996812656718,4.491377293176082
8.696,0.9999967824140757,4.323585742465779
8.704,0.9999967523911402,4.155783672556356
8.712,0.9999967226003288,3.9879710999785094
8.72,0.9999966930541545,3.8201480412919975
8.728,0.9999966637652232,3.652314513085756
8.736,0.9999966347462338,3.4844705319774145
8.744,0.9999966060099725,3.3166161146134208
8.752,0.9999965775693146,3.148751277668553
8.76,0.9999965494372199,2.980876037846048
8.768,0.9999965216267315,2.8129904118771254
8.776,0.9999964941509728,2.645094416521115
8.784,0.9999964670231465,2.477188068564983
8.792,0.9999964402565318,2.309271384823463
8.8,0.9999964138644818,2.1413443821385942
8.808,0.9999963878604219,1.9734070773798456
8.815999999999999,0.9999963622578477,1.8054594874437002
8.824,0.9999963370703215,1.6375016292536024
8.832,0.9999963123114716,1.4695335197598707
8.84,0.9999962879949891,1.301555175939468
8.847999999999999,0.9999962641346256,1.133566614795774
8.856,0.9999962407441907,0.9655678533585034
8.864,0.9999962178375501,0.7975589086836272
8.872,0.9999961954286232,0.6295397978531527
8.879999999999999,0.999996173531381,0.46151053797489927
8.888,0.9999961521598426,0.29347114618242925
8.896,0.9999961313280736,0.1254216396349768
8.904,0.9999961110501833,-0.04263796448276694
8.911999999999999,0.9999960913403235,-0.21070764896086802
8.92,0.9999960722126838,-0.37878739656421423
8.928,0.9999960536814915,-0.54687719003257
8.936,0.9999960357610064,-0.7149770120807942
8.943999999999999,0.9999960184655216,-0.8830868453990364
8.952,0.9999960018093585,-1.0512066726528002
8.96,0.9999959858068652,-1.2193364764829888
8.968,0.9999959704724134,-1.3874762395061109
8.975999999999999,0.9999959558203976,-1.5556259443144747
8.984,0.9999959418652293,-1.7237855734762397
8.992,0.9999959286213381,-1.8919551095354552
9.0,0.9999959161031664,-2.060134535012259
9.008,0.9999959043251686,-2.2283238324030634
9.016,0.9999958933018074,-2.3965229841805926
9.024000000000001,0.9999958830475512,-2.5647319727939286
9.032,0.9999958735768726,-2.7329507806686864
9.04,0.9999958649042446,-2.901179390207199
9.048,0.9999958570441385,-3.0694177837885483
9.056000000000001,0.9999958500110215,-3.237665943768598
9.064,0.9999958438193528,-3.405923852480167
9.072,0.9999958384835835,-3.5741914922332
9.08,0.9999958340181511,-3.7424688453148005
9.088000000000001,0.9999958304374787,-3.91075589398924
9.096,0.9999958277559716,-4.079052620498141
9.104,0.9999958259880148,-4.247359007060635
9.112,0.999995825147971,-4.415675035873368
9.120000000000001,0.9999958252501759,-4.584000689110536
9.128,0.9999958263089388,-4.752335948924033
9.136,0.999995828338536,-4.920680797443612
9.144,0.9999958313532118,-5.089035216776895
9.152000000000001,0.9999958353671733,-5.257399189009369
9.16,0.999995840394589,-5.425772696204559
9.168,0.999995846449585,-5.594155720404151
9.176,0.9999958535462441,-5.762548243628029
9.184000000000001,0.9999958616986012,-5.930950247874235
9.192,0.9999958709206418,-6.099361715119149
9.2,0.9999958812262988,-6.267782627317601
9.208,0.9999958926294499,-6.436212966402886
9.216000000000001,0.9999959051439152,-6.604652714286758
9.224,0.9999959187834538,-6.773101852859539
9.232,0.9999959335617622,-6.9415603639902885
9.24,0.9999959494924703,-7.110028229526774
9.248000000000001,0.9999959665891399,-7.278505431295451
9.256,0.9999959848652616,-7.446991951101602
9.264,0.9999960043342514,-7.615487770729456
9.272,0.9999960250094493,-7.7839928719421785
9.280000000000001,0.9999960469041159,-7.9525072364818366
9.288,0.9999960700314292,-8.121030846069536
9.296,0.999996094404483,-8.289563682405525
9.304,0.9999961200362838,-8.458105727169183
9.312000000000001,0.9999961469397478,-8.62665696201897
9.32,0.9999961751276997,-8.79521736859256
9.328,0.9999962046128663,-8.963786928506957
9.336,0.9999962354078797,-9.132365623358433
9.344,0.9999962675252686,-9.300953434722501
9.352,0.9999963009774604,-9.469550344154145
9.36,0.9999963357767757,-9.638156333187617
9.368,0.9999963719354266,-9.80677138333673
9.376,0.9999964094655148,-9.975395476094613
9.384,0.9999964483790277,-10.144028592934005
9.392,0.9999964886878365,-10.312670715307016
9.4,0.9999965304036936,-10.481321824645425
9.408,0.9999965735382303,-10.649981902360437
9.416,0.9999966181029529,-10.818650929842963
9.424,0.9999966641092425,-10.987328888463372
9.432,0.9999967115683498,-11.156015759571778
9.44,0.9999967604913946,-11.324711524497799
9.448,0.9999968108893621,-11.493416164550833
9.456,0.9999968627731011,-11.662129661019783
9.464,0.9999969161533208,-11.830851995173399
9.472,0.9999969710405888,-11.99958314825992
9.48,0.9999970274453288,-12.168323101507456
9.488,0.9999970853778173,-12.33707183612365
9.496,0.9999971448481823,-12.505829333295992
9.504,0.9999972058663992,-12.674595574191542
9.512,0.9999972684422903,-12.843370539957197
9.52,0.9999973325855213,-13.012154211719436
9.528,0.9999973983055984,-13.180946570584576
9.536,0.9999974656118674,-13.349747597638482
9.544,0.9999975345135098,-13.518557273946916
9.552,0.9999976050195417,-13.687375580555129
9.56,0.9999976771388103,-13.856202498488257
9.568,0.9999977508799925,-14.025038008750949
9.576,0.9999978262515924,-14.193882092327675
