freq,mag,phase
6.0,0.9999898671423388,25.80377747050493
6.041884672,0.9999871935956381,24.722765547970113
6.083769856,0.9999847874814927,23.64168393323188
6.125654528,0.9999825701592618,22.560521117971003
6.1675392,0.999980660468386,21.479281749256554
6.209423872,0.9999790423303198,20.397950555403316
6.251309056,0.9999777080670104,19.31655109547946
6.293193728,0.9999767773057286,18.235079469345784
6.3350784,0.9999762964240462,17.15350601561109
6.376963584,0.9999760934458317,16.07178704699119
6.418848256,0.9999763223836841,14.99001481501485
6.460732928,0.9999769014848184,13.908156515283444
6.5026176,0.999977870893935,12.826153190406544
6.544502784,0.999979235387563,11.744066699311496
6.586387456,0.9999809988199546,10.661873527541294
6.628272128,0.9999830408649892,9.579560411695965
6.670157312,0.9999853992226739,8.497122875777288
6.712041984,0.9999879568888537,7.414567523281205
6.753926656,0.9999908344899444,6.331906552177939
6.795811328,0.9999939654090526,5.249124511431009
6.837696512,0.999997093090452,4.1661862564628995
6.879581184,1.0000004242621496,3.0831251614741553
6.921465856,1.0000038101048947,1.9999664678970137
6.96335104,1.000007160925669,0.9166656988207551
7.005235712,1.0000104351896781,-0.16677433241455944
7.047120384,1.0000136279576501,-1.2503227101415062
7.089005056,1.000016679509233,-2.334025219341682
7.13089024,1.000019608332939,-3.4178388849664403
7.172774912,1.0000221811804595,-4.501803076719517
7.214659584,1.000024522585396,-5.5858618772419115
7.256544256,1.0000265746931907,-6.670057546873504
7.29842944,1.0000281414995709,-7.754380142633347
7.340314112,1.0000294995986068,-8.838825187648611
7.382198784,1.0000302693537189,-9.923375452431822
7.424083968,1.0000308345344466,-11.008034856415527
7.46596864,1.0000308882196538,-12.092834064458797
7.507853312,1.0000303685424388,-13.177707278395866
7.549737984,1.000029570076302,-14.26271867674133
7.591623168,1.0000283187636394,-15.34783020676271
7.63350784,1.0000265383261588,-16.43302274817503
7.675392512,1.0000246318441317,-17.518370406170423
7.717277696,1.0000220793020391,-18.60375142999478
7.759162368,1.0000192425087315,-19.68927509377013
7.80104704,1.0000163167138352,-20.774848762255843
7.842931712,1.0000130493758248,-21.860562567795384
7.884816896,1.0000095197881316,-22.9463440221009
7.926701568,1.0000059227951632,-24.03221504009582
7.96858624,1.0000021157469114,-25.118160087066816
8.010471424,0.9999983469870986,-26.20421990474721
8.052356096,0.9999946374589771,-27.290350664730056
8.094240768,0.9999909442151194,-28.376586708111343
8.13612544,0.9999874265784754,-29.462908613520618
8.178010624,0.9999840596970133,-30.549327520115774
8.219895296,0.9999809742115806,-31.635847623971873
8.261779968,0.9999780145839091,-32.7224648244389
8.303665152,0.9999755516626835,-33.809146751048104
8.345549824,0.9999734248590351,-34.89596173614358
8.387434496,0.9999716520400629,-35.982885780469
8.429319168,0.9999703286099544,-37.06988509452622
8.471204352,0.9999695306355634,-38.157014629953096
8.513089024,0.9999690906702049,-39.244267644402726
8.554973696,0.9999693763678291,-40.331641832560685
8.59685888,0.9999700608539811,-41.41910762418683
8.638743552,0.9999710860228564,-42.50673037354109
8.680628224,0.9999727733296115,-43.59447767144913
8.722512896,0.9999747208440252,-44.68235240392996
8.764397568,0.9999772465432614,-45.77036393530779
8.80628224,0.9999802171991025,-46.85852625289527
8.848167936,0.9999834435832957,-47.94682048172767
8.890052608,0.9999869096652466,-49.035254504440765
8.93193728,0.9999908615478,-50.12386397732904
8.973821952,0.9999949171825425,-51.21259757620122
9.015706624,0.9999990271551689,-52.301529057996625
9.057591296,1.0000033713017478,-53.390569588131406
9.099475968,1.000007611915592,-54.47975777283559
9.141361664,1.0000120787803202,-55.56912621467174
9.183246336,1.0000162148819312,-56.65865200888615
9.225131008,1.0000201867189593,-57.748331160044216
9.26701568,1.0000239838874396,-58.8381502053308
9.308900352,1.0000275612216334,-59.928139604972706
9.350785024,1.0000308160028126,-61.01824965366783
9.392669696,1.0000334408989362,-62.10854941039451
9.434555392,1.0000359120706355,-63.198970993809255
9.476440064,1.0000378017419598,-64.28954200814847
9.518324736,1.0000391353122813,-65.38024860681509
9.560209408,1.0000399964587352,-66.47110129407586
9.60209408,1.000040237864827,-67.56206378617794
9.643978752,1.0000399996626694,-68.65320137835825
9.685863424,1.0000390978490505,-69.74443502903198
9.72774912,1.0000376991499076,-70.83579835472221
9.769633792,1.000035839137536,-71.9272772162326
9.811518464,1.0000333363900518,-73.0188585344147
9.853403136,1.0000304089865435,-74.1105697075675
9.895287808,1.0000270413949301,-75.20237378577251
9.93717248,1.0000231890363718,-76.2943139451651
9.979057152,1.0000189998634958,-77.38633420934315
10.020942848,1.0000145465651866,-78.47846115050481
10.06282752,1.0000098168840614,-79.5706799219006
10.104712192,1.0000050372024518,-80.66300848932934
10.146596864,1.0000000922345633,-81.75543734684474
10.188481536,0.9999950723568848,-82.84796268849183
10.230366208,0.9999901762638862,-83.94057758868695
10.27225088,0.9999853772507428,-85.03329061522632
10.314136576,0.9999807747103274,-86.12610460474563
10.356021248,0.9999764558830546,-87.21902640813332
10.39790592,0.9999724021226752,-88.31203045432947
10.439790592,0.9999688366434698,-89.40514598322817
10.481675264,0.9999657077484677,-90.49838044390307
10.523559936,0.9999630793038145,-91.59173845115785
10.565444608,0.999960967401263,-92.685173707168
10.607330304,0.9999594466579059,-93.77875494043394
10.649214976,0.9999585826242483,-94.87245097674436
10.691099648,0.9999584147401047,-95.96627849935906
10.73298432,0.9999588938109122,-97.06023611788999
10.774868992,0.9999598957441592,-98.1543223255645
10.816753664,0.999961667343627,-99.24856533465224
10.858638336,0.9999640077200168,-100.34295790313202
10.900524032,0.9999670413386289,-101.43748847065716
10.942408704,0.9999705516873779,-102.5321742689143
10.984293376,0.999974652879482,-103.62705080590109
11.026178048,0.9999792318217668,-104.72204196735096
11.06806272,0.9999841206781537,-105.81722175200544
11.109947392,0.9999893722192588,-106.9125958209157
11.151832064,0.9999949181186505,-108.00810470410454
11.19371776,1.0000006271070054,-109.1038189637731
11.235602432,1.00000653058214,-110.1996932360984
11.277487104,1.0000123806693173,-111.29573603375678
11.319371776,1.000018151645755,-112.3919605705596
11.361256448,1.000023880081439,-113.48836150240338
11.40314112,1.0000292107582038,-114.58495187206496
11.445025792,1.0000343101728646,-115.68170475751218
11.486911488,1.000038962682488,-116.77862230988683
11.52879616,1.0000431404228576,-117.87570633979824
11.570680832,1.0000468305831705,-118.97296061803694
11.612565504,1.00004994727786,-120.07036801787359
11.654450176,1.0000523450569399,-121.16793500794365
11.696334848,1.000054014273081,-122.265673968134
11.73821952,1.0000550451204646,-123.36355494240371
11.780105216,1.000055207103299,-124.46156638983217
11.821989888,1.0000546106274324,-125.55972022650914
11.86387456,1.0000532821381973,-126.65801412782433
11.905759232,1.0000512241315738,-127.7564325036945
11.947643904,1.0000483940728087,-128.8549683489066
11.989528576,1.0000448172857286,-129.95361407804089
12.031413248,1.0000405173125342,-131.05238249176284
12.07329792,1.0000356675507116,-132.15126824104723
12.115183616,1.0000302747005723,-133.25022950443108
12.157068288,1.0000243026162483,-134.3493217062562
12.19895296,1.000018059338103,-135.44848958204494
12.240837632,1.000011464600703,-136.5477474618065
12.282722304,1.000004522319876,-137.64709785527978
12.324606976,0.9999975635904497,-138.74653959523633
12.366491648,0.9999905225178075,-139.84606696327896
12.408377344,0.9999836355921565,-140.945686933311
12.450262016,0.9999768352267762,-142.045402301798
12.492146688,0.9999703992218921,-143.14518590755927
12.53403136,0.999964303819961,-144.24508449477406
12.575916032,0.9999586443519868,-145.34505739691818
12.617800704,0.999953593892885,-146.44512752625508
12.659685376,0.9999491894383153,-147.5453203507045
12.701571072,0.9999454766972524,-148.64560547232207
12.743455744,0.9999425838101269,-149.74600892459478
12.785340416,0.9999405090349659,-150.8465107053405
12.827225088,0.9999392865776443,-151.94715737903866
12.86910976,0.9999391149484368,-153.04791650140015
12.910994432,0.9999397227786968,-154.14882128275335
12.952879104,0.999941369630193,-155.2498459247608
12.9947648,0.9999438810369219,-156.3510413652814
13.036649472,0.9999473912755391,-157.4523725877868
13.078534144,0.9999517384722991,-158.55386815089287
13.120418816,0.9999568206263196,-159.6555338906265
13.162303488,0.9999628156577738,-160.7573722238721
13.20418816,0.9999694124685289,-161.8593931294753
13.246072832,0.9999766300745145,-162.9615826226017
13.287958528,0.9999843172606296,-164.0639555061317
13.3298432,0.9999924838574491,-165.16652151617097
13.371727872,1.0000009141988855,-166.26927203788583
13.413612544,1.0000095000441331,-167.37222879634157
13.455497216,1.0000181393139123,-168.47538291341945
13.497381888,1.0000267311005555,-169.57871790214008
13.53926656,1.0000351229093192,-170.68226535242565
13.581152256,1.000043254949233,-171.78598386465697
13.623036928,1.0000508476605843,-172.8899004741529
13.6649216,1.000057808702124,-173.99401754004853
13.706806272,1.0000641714765377,-175.0983240190524
13.748690944,1.0000697817785051,-176.20278712038038
13.790575616,1.0000744338016003,-177.3074335428131
13.832460288,1.0000782500903507,-178.41226201520809
13.874345984,1.0000809176471546,-179.51724271029644
13.916230656,1.0000824838280902,179.37763325139275
13.958115328,1.0000829187176274,178.2723445336738
14.0,1.00008225630808,177.16694198830737
