freq,mag,phase
6.0,0.9995699069843771,-106.25143192849856
6.007662592,0.9996014322183475,-106.64985072337694
6.015325696,0.9996543084031251,-107.04891550301006
6.022988288,0.99972555442539,-107.44893210664442
6.030651392,0.9998117180748267,-107.85012217682615
6.038313984,0.9999079587901183,-108.25259389593273
6.045977088,1.0000092034536563,-108.65649969303604
6.05363968,1.0001098069791525,-109.06190312497698
6.061302784,1.0002045859278468,-109.46871108687081
6.068965376,1.0002884659594888,-109.87676362301808
6.07662848,1.0003566777804185,-110.28595968373595
6.084291072,1.0004058772281224,-110.69605411483383
6.091954176,1.0004331603547962,-111.10678789267676
6.099616768,1.0004370956245097,-111.51785250097339
6.107279872,1.0004173808233199,-111.92888834822254
6.114942464,1.0003752169675355,-112.33960180822095
6.122605568,1.0003127074854063,-112.74976248359019
6.13026816,1.0002331076487359,-113.15906420811345
6.137931264,1.000140889756088,-113.56730787572991
6.145593856,1.0000407469767927,-113.9744128855226
6.15325696,0.9999383048245841,-114.38022393754146
6.160919552,0.9998388423106842,-114.78482021949019
6.168582144,0.999747719851387,-115.1882292847458
6.176245248,0.9996699624818639,-115.59060995480132
6.18390784,0.999609825616712,-115.99216111679537
6.191570944,0.9995704342334997,-116.39314011288484
6.199233536,0.9995539132795295,-116.79386048928575
6.20689664,0.9995612602575717,-117.19460860896054
6.214559232,0.9995921099919366,-117.59571041360707
6.222222336,0.9996447823168577,-117.99746388382532
6.229884928,0.9997165447196635,-118.40016420578594
6.237548032,0.9998035091180041,-118.80399615879618
6.245210624,0.9999009276561271,-119.20920694531925
6.252873728,1.0000038847463033,-119.61582154580812
6.26053632,1.000106626017073,-120.02391142947258
6.268199424,1.0002036411503532,-120.4334499072983
6.275862016,1.0002897280356806,-120.84429748627198
6.28352512,1.0003603617093804,-121.25629578150594
6.291187712,1.0004115414773356,-121.66922082385176
6.298850816,1.000440618570114,-122.08279091105157
6.306513408,1.0004459871171374,-122.49667756854137
6.314176,1.0004274176546528,-122.91056691443283
6.321839104,1.0003856168067198,-123.32417344027782
6.329501696,1.0003231202177973,-123.7371715162118
6.3371648,1.0002429463816596,-124.14931700195544
6.344827392,1.0001495583861166,-124.56044337897688
6.352490496,1.0000479727309224,-124.97037556941402
6.360153088,0.999943484336669,-125.37897753347336
6.367816192,0.9998418502804387,-125.78629259859338
6.375478784,0.9997485182294175,-126.19244428315675
6.383141888,0.9996683660112669,-126.5975269488606
6.39080448,0.9996058799309624,-127.00168424328501
6.398467584,0.9995643266238605,-127.40531544262603
6.406130176,0.9995460626836121,-127.8086042323345
6.41379328,0.9995521386293198,-128.21189357028607
6.421455872,0.9995821114799532,-128.615530915623
6.429118976,0.9996345442646031,-129.0198087292837
6.436781568,0.9997065899027294,-129.4250421364309
6.444444672,0.9997944161626872,-129.83139211711168
6.452107264,0.9998932989947669,-130.23908676369365
6.459770368,0.9999980743312542,-130.64824090589877
6.46743296,1.000102880382174,-131.05887104946976
6.475095552,1.0002022573005047,-131.47099304481904
6.482758656,1.000290851132184,-131.88448505435213
6.490421248,1.0003639895668062,-132.29909896175025
6.498084352,1.0004174842348565,-132.714683402658
6.505746944,1.0004486332914593,-133.13093079038288
6.513410048,1.000455633783533,-133.54751833329541
6.52107264,1.0004381122876431,-133.9641233996901
6.528735744,1.0003970356456913,-134.38043954771496
6.536398336,1.0003344260675886,-134.79617101244114
6.54406144,1.0002537472329773,-135.2110181344691
6.551724032,1.0001593428508495,-135.62482905395615
6.559387136,1.0000560437522943,-136.03738575668382
6.567049728,0.9999495275986355,-136.4486367417047
6.574712832,0.999845561628698,-136.85858332183116
6.582375424,0.999749644728502,-137.26725864514933
6.590038528,0.9996669043128925,-137.6748326501106
6.59770112,0.9996018804322111,-138.0815146761338
6.605364224,0.9995580335836585,-138.4875832095618
6.613026816,0.9995378536283366,-138.8932644244287
6.620689408,0.9995423965929694,-139.2989202479278
6.628352512,0.9995714143932619,-139.7049056468978
6.636015104,0.9996234217134428,-140.1115079547922
6.643678208,0.9996956950261338,-140.51904880104158
6.6513408,0.9997843247746969,-140.92771655263485
6.659003904,0.9998845601687638,-141.33774606222707
6.666666496,0.9999911700548818,-141.7492528775714
6.6743296,1.0000983149192753,-142.16228840030294
6.681992192,1.0002002287183183,-142.57678709808565
6.689655296,1.0002915681412372,-142.9926362515805
6.697317888,1.0003672754426851,-143.4097175057677
6.704980992,1.0004233049365838,-143.8277678397537
6.712643584,1.0004566549477385,-144.24654257002936
6.720306688,1.0004655722594304,-144.66562010383578
6.72796928,1.000449440895996,-145.08478647094594
6.735632384,1.0004090284304736,-145.50363123815723
6.743294976,1.0003465982345403,-145.92190809386494
6.75095808,1.0002655168399768,-146.33931557027086
6.758620672,1.0001698867171542,-146.75559224860172
6.766283776,1.0000649717666532,-147.17064354655022
6.773946368,0.999956319383022,-147.58434155589094
6.78160896,0.9998498313244604,-147.99669679025763
6.789272064,0.9997511661775907,-148.4077651042019
6.796934656,0.9996655963432132,-148.8176582112133
6.80459776,0.9995977953109416,-149.22663544617936
6.812260352,0.9995514965243181,-149.63490437362515
6.819923456,0.9995291705525923,-150.04280245219465
6.827586048,0.9995319436237062,-150.4506568874077
6.835249152,0.9995598767385883,-150.85876526416874
6.842911744,0.9996112840349544,-151.2674743568679
6.850574848,0.9996837111396877,-151.67713346068277
6.85823744,0.9997731955461954,-152.0879208894636
6.865900544,0.99987489820749,-152.50006190351942
6.873563136,0.999983407928701,-152.91368718167757
6.88122624,1.00009286573569,-153.3288663358023
6.888888832,1.0001975435733579,-153.74553707615263
6.896551936,1.0002916998643927,-154.16360597558204
6.904214528,1.0003703450069625,-154.58291711943275
6.911877632,1.0004291399550496,-155.0032414975894
6.919540224,1.0004649916244877,-155.42428501274543
6.927202816,1.0004759691914935,-155.84572402188766
6.93486592,1.0004613053989366,-156.26718273826924
6.942528512,1.0004218648282637,-156.68838790638307
6.950191616,1.0003596630723162,-157.10897585642692
6.957854208,1.0002780817446375,-157.52872905892244
6.965517312,1.0001813741572638,-157.94731991628615
6.973179904,1.000074704315063,-158.36466386104004
6.980843008,0.999963795371561,-158.7806056605061
6.9885056,0.9998546665591564,-159.19517283831402
6.996168704,0.9997530559400449,-159.60839813173456
7.003831296,0.9996645135113168,-160.02041648454704
7.0114944,0.9995937741649535,-160.43145503497573
7.019156992,0.9995446753096633,-160.84175431006014
7.026820096,0.999519869190953,-161.2516311340551
7.034482688,0.999520757708474,-161.66143577138664
7.042145792,0.9995474153300263,-162.07146116243143
7.049808384,0.9995982883441416,-162.48207350698164
7.057471488,0.999670732348346,-162.89357776861303
7.06513408,0.9997610054762107,-163.30622597088293
7.072797184,0.9998641738562987,-163.72025597406864
7.080459776,0.9999746887990824,-164.13578827455765
7.088122368,1.0000867682111108,-164.5528737605987
7.095785472,1.000194265662109,-164.97148603355757
7.103448064,1.0002915811156008,-165.39155436457162
7.111111168,1.0003733036315496,-165.81288311503178
7.11877376,1.0004351162725655,-166.23522153387978
7.126436864,1.0004736481414278,-166.65834673862986
7.134099456,1.0004868888927094,-167.08182428691225
7.14176256,1.0004739991055442,-167.5054441689251
7.149425152,1.000435582440201,-167.92877536738504
7.157088256,1.0003737809927251,-168.35148520964282
7.164750848,1.0002917454891618,-168.77331426123703
7.172413952,1.0001938544380526,-169.19404108758587
7.180076544,1.0000854223128306,-169.61342758334683
7.187739648,0.9999721924413525,-170.03143899961643
7.19540224,0.9998601513361565,-170.447981090669
7.203065344,0.9997555025377405,-170.8631548828769
7.210727936,0.9996637246274535,-171.27704734028774
7.21839104,0.9995897166522035,-171.6899336465877
7.226053632,0.9995376962761995,-172.10202236292167
7.233716224,0.9995102211972962,-172.51365666086218
7.241379328,0.9995090202970706,-172.92514020132472
7.24904192,0.999534097923973,-173.33681351951503
7.256705024,0.9995841932347851,-173.7490809970663
7.264367616,0.9996567249270071,-174.16223225426617
7.27203072,0.9997476597606165,-174.5765172435905
7.279693312,0.9998522880193023,-174.9921735805656
7.287356416,0.9999649876240287,-175.40933413063277
7.295019008,1.0000797644865727,-175.8280676635842
7.302682112,1.000190307657302,-176.2483981731174
7.310344704,1.0002909160034856,-176.6701851512306
7.318007808,1.0003760634741508,-177.0932873494397
7.3256704,1.0004411039564363,-177.51741360510547
7.333333504,1.000482676922161,-177.94235920694402
7.340996096,1.000498234642355,-178.36774001771275
7.3486592,1.0004872682439174,-178.79322386857112
7.356321792,1.0004499959132482,-179.21840964628416
7.363984896,1.0003887272801397,-179.64301998994898
7.371647488,1.0003063312373148,179.93326031945486
7.379310592,1.0002073029798342,179.51067438876524
7.386973184,1.0000970261286302,179.08943895026616
7.394635776,0.9999813005009588,178.66963761420106
7.40229888,0.9998663688548403,178.251338187966
7.409961472,0.9997583551469942,177.83447114364571
7.417624576,0.9996630516966379,177.4189116722897
7.425287168,0.9995856239149961,177.0044515655453
7.432950272,0.9995303059395586,176.59079901866556
7.440612864,0.9995001283368393,176.17770342645986
7.448275968,0.999496513035913,175.76478499333297
7.45593856,0.9995200711204838,175.35165960442296
7.463601664,0.9995692074354879,174.9380292022801
7.471264256,0.9996416269379748,174.52353227560843
7.47892736,0.9997332200420568,174.10788447146996
7.486589952,0.9998393855356663,173.69087858373686
7.494253056,0.9999542984472709,173.27230647978112
7.501915648,1.0000718348091195,172.8521647831439
7.509578752,1.0001857741466922,172.43043126949232
7.517241344,1.000289880653657,172.00718236980583
7.524904448,1.0003786526593663,171.58258004013115
7.53256704,1.0004471801520387,171.15688156807389
7.540229632,1.000491867511265,170.73035483670193
7.547892736,1.000510231510513,170.30338589207497
7.555555328,1.0005013091646144,169.87628624981772
7.563218432,1.000465496665291,169.44939753908162
7.570881024,1.00040459569494,169.0231467023407
7.578544128,1.0003219382461463,168.59779103616023
7.58620672,1.0002218138104615,168.17359227354365
7.593869824,1.0001097126173486,167.7507545389224
7.601532416,0.9999914133525304,167.3294050863094
7.60919552,0.9998733185111746,166.90957062871675
7.616858112,0.999761701115178,166.49128672442367
7.624521216,0.9996627322774199,166.07429251091418
7.632183808,0.9995816129421545,165.65850232945556
7.639846912,0.9995227395633013,165.24359519437436
7.647509504,0.9994894056781826,164.8292777562532
7.655172608,0.9994833306278929,164.41515931799756
7.6628352,0.9995050637960687,164.00090340336908
7.670498304,0.9995532110490596,163.5861637334934
7.678160896,0.9996254184274789,163.17057205418988
7.685824,0.9997178914724073,162.75382739070142
7.693486592,0.9998256300849325,162.33571045848646
7.701149184,0.9999427781835348,161.91605431029458
7.708812288,1.0000633033602018,161.49481364541415
7.71647488,1.000180666713085,161.07190585406894
7.724137984,1.0002884348271515,160.6474225570177
7.731800576,1.0003810470175156,160.22158971089283
7.73946368,1.0004533634900248,159.79459809002987
7.747126272,1.0005013952646866,159.3667673477203
7.754789376,1.0005227412976512,158.93842296431558
7.762451968,1.0005161420070838,158.50993583477748
7.770115072,1.0004817371854913,158.08167462551535
7.777777664,1.000421551338984,157.6540223455677
7.785440768,1.0003386237017302,157.2272600156003
7.79310336,1.0002373424769857,156.8016722003969
7.800766464,1.0001231173012501,156.3774822174879
7.808429056,1.000002168126702,155.9548535284088
7.81609216,0.9998807891767291,155.53375861076083
7.823754752,0.9997654411527239,155.1142511162565
7.831417856,0.9996624876177825,154.69614855329434
7.839080448,0.9995775413172445,154.27926182876556
7.84674304,0.9995149310519184,153.86334027894534
7.854406144,0.9994782228468684,153.44805969832072
7.862068736,0.9994693710490913,153.03305391057194
7.86973184,0.9994891306383739,152.61792081409143
7.877394432,0.9995362050245583,152.20235169439752
7.885057536,0.9996081459865991,151.7859449664844
7.892720128,0.9997011833633711,151.36837753355715
7.900383232,0.9998105516456488,150.94946849644123
7.908045824,0.9999302413728783,150.52897751540638
7.915708928,1.0000538675306072,150.10684808697206
7.92337152,1.0001748374043387,149.6830360796043
7.931034624,1.0002866090843847,149.2576434558852
7.938697216,1.0003832124151135,148.8308199137985
7.94636032,1.0004595611875016,148.40281637458207
7.954022912,1.0005112851302176,147.9739249927929
7.961686016,1.0005358601117564,147.54449075613655
7.969348608,1.0005316689735229,147.11488229783856
7.977011712,1.0004988905432903,146.6854710702748
7.984674304,1.0004394305280173,146.2566288875086
7.992337408,1.0003562415860945,145.828746763656
8.0,1.000253849425719,145.40203053243303
8.007662592,1.000137535925723,144.97674185155668
8.015325696,1.0000137040801826,144.55304427233722
8.022988288,0.9998888127829262,144.1309671591136
8.030651392,0.999769568675289,143.7105074748765
8.038313984,0.9996624563683404,143.29151958909335
8.045977088,0.9995733007178486,142.87381155252382
8.05363968,0.999506710593875,142.45716503656877
8.061302784,0.9994664940658949,142.04118136047077
8.068965376,0.9994547067700694,141.62552764876176
8.07662848,0.9994721746363826,141.20982746638379
8.084291072,0.9995179489053795,140.79369309640526
8.091954176,0.9995897654932825,140.3767387329731
8.099616768,0.9996835803084411,139.95866236717274
8.107279872,0.9997945617678834,139.53920317693104
8.114942464,0.9999167185883747,139.11816773571343
8.122605568,1.0000437859980777,138.69542872094266
8.13026816,1.000168446270347,138.27099178604058
8.137931264,1.0002845152579725,137.84494063260004
8.145593856,1.0003854780544983,137.41741608587262
8.15325696,1.0004660281274302,136.9886483933509
8.160919552,1.0005216716409724,136.5589699698027
8.168582144,1.0005495335420014,136.1286714111436
8.176245248,1.0005480342880189,135.69815753380286
8.18390784,1.0005171010336134,135.26787067863415
8.191570944,1.0004584453033571,134.83812298378382
8.199233536,1.0003751087325075,134.40928853700208
8.20689664,1.000271406808301,133.98172680077448
8.214559232,1.000153034798053,133.5555731824922
8.222222336,1.0000260159419652,133.1310732283726
8.229884928,0.9998975812685665,132.70825442355041
8.237548032,0.9997742097043923,132.28707529658766
8.245210624,0.9996625914094306,131.86748221650984
8.252873728,0.9995688514624095,131.4492398873096
8.26053632,0.999498028215652,131.03207518852435
8.268199424,0.9994540027026356,130.6156525171904
8.275862016,0.9994390842993413,130.19965150154883
8.28352512,0.9994542937702685,129.7836074398734
8.291187712,0.9994986652825265,129.3671711715789
8.298850816,0.9995701755079943,128.94995293853052
8.306513408,0.9996646956842034,128.5316127980863
8.314176,0.9997773489509875,128.11190214358265
8.321839104,0.9999023204524642,127.69056840146071
8.329501696,1.000032603991747,127.26751416629006
8.3371648,1.0001615098956507,126.84272949117654
8.344827392,1.0002819781240817,126.41625515558185
8.352490496,1.0003875394271107,125.988283648379
8.360153088,1.000472619492898,125.55900509341436
8.367816192,1.0005325227700337,125.12876833326342
8.375478784,1.000563945801723,124.69784648214633
8.383141888,1.0005652541105126,124.2667202814402
8.39080448,1.0005362629924885,123.83576858592549
8.398467584,1.0004784766615338,123.4053675633714
8.406130176,1.000394940068376,122.97590023188819
8.41379328,1.0002899912776193,122.54765561598884
8.421455872,1.00016943583281,122.12091244079537
8.429118976,1.0000393387531472,121.69579687328523
8.436781568,0.9999068396435083,121.27246210765843
8.444444672,0.9997790033025878,120.85083507718686
8.452107264,0.999662737155055,120.43084979762675
8.459770368,0.9995643043166,120.01228937007232
8.46743296,0.999488967452398,119.5948837747265
8.475095552,0.9994409246641546,119.1783323621661
8.482758656,0.9994226406380314,118.76218680019625
8.490421248,0.9994354075302689,118.34609118275985
8.498084352,0.9994783472426206,117.929633993886
8.505746944,0.9995492926236493,117.51240691120621
8.513410048,0.999644661295109,117.09405554225401
8.52107264,0.9997591300356955,116.67432672343806
8.528735744,0.9998868423772171,116.25299626934157
8.536398336,1.000020883027188,115.82986268399138
8.54406144,1.0001540492914627,115.40496706490514
8.551724032,1.0002792174658064,114.97835766930145
8.559387136,1.0003897347688182,114.55013202254388
8.567049728,1.0004795782866478,114.12060482961259
8.574712832,1.0005439091687789,113.69002693565955
8.582375424,1.0005791948681733,113.25875501519906
8.590038016,1.0005834624381518,112.8272022288603
8.597701632,1.0005566197658948,112.39582043690854
8.605364224,1.000499802008844,111.96497003593976
8.613026816,1.0004160742530726,111.53505341454702
8.620689408,1.0003097965068417,111.10636270752374
8.628352,1.0001867040286894,110.6792286737549
8.636015616,1.0000533939035399,110.25379943570412
8.643678208,0.9999167189215475,109.83016813687807
8.6513408,0.9997842609552108,109.40834113571673
8.659003392,0.9996631247852057,108.98816503484636
8.666667008,0.9995595730319385,108.56955621940041
8.6743296,0.9994794781355772,108.15213548533869
8.681992192,0.9994270310169631,107.73563451079761
8.689654784,0.9994051948510468,107.3196322985747
8.6973184,0.9994152679717205,106.90371009318089
8.704980992,0.9994566191134434,106.48748081254257
8.712643584,0.9995271806215357,106.07048934821863
8.720306176,0.9996232460725532,105.65239973217908
8.727969792,0.999739758759744,105.23289905107498
8.735632384,0.999870355581514,104.8117606604376
8.743294976,1.0000082062173699,104.38883503527201
8.750957568,1.0001459248746822,103.96405428895169
8.758621184,1.000276122939726,103.53751713514345
8.766283776,1.0003917917205924,103.10930934245594
8.773946368,1.0004866592682982,102.67973435669136
8.78160896,1.000555679187661,102.24901604756161
8.789271552,1.0005950831955883,101.81761966463232
8.796935168,1.00060261878959,101.38588451290767
8.80459776,1.0005779912872421,100.95424262099544
8.812260352,1.0005222030272725,100.52316975689772
8.819922944,1.0004382986745655,100.09300910421922
8.82758656,1.0003307484320418,99.66410495070336
8.835249152,1.0002050555374282,99.23677334802417
8.842911744,1.0000681161577887,98.81118401355046
8.850574336,0.9999272756433942,98.38747311936389
8.858237952,0.999789827723427,97.96562685112687
8.865900544,0.9996633506286305,97.54555690672767
8.873563136,0.9995545385991887,97.12703735156218
8.881225728,0.9994693156771726,96.70985981371877
8.888889344,0.999412459700132,96.29364065532809
8.896551936,0.9993867871407656,95.87800214301438
8.904214528,0.9993940527900501,95.46249850758376
8.91187712,0.9994336895986549,95.04669916831604
8.919540736,0.9995037708491823,94.630193434916
8.927203328,0.9996006179675307,94.21257074879269
8.93486592,0.9997191154157121,93.7935338076606
8.942528512,0.9998529217791905,93.37282268016159
8.950191104,0.9999949407687383,92.950299009995
8.95785472,1.000137419255747,92.52586586700579
8.965517312,1.0002728390624205,92.09960146395194
8.973179904,1.0003940270640648,91.67162189494671
8.980842496,1.0004942800660706,91.2421749267282
8.988506112,1.0005682716969755,90.81157971951009
8.996168704,1.0006119971486054,90.38020385442562
9.003831296,1.000622915712795,89.94846240414728
9.011493888,1.0006006354938681,89.51679365754829
9.019157504,1.0005459508483512,89.08563326029979
9.026820096,1.0004619207985093,88.65540851407656
9.034482688,1.0003527784564494,88.22647734665588
9.04214528,1.0002245054951968,87.79914717356087
9.049808896,1.0000839147072411,87.3736036662839
9.057471488,0.9999383702731817,86.94998241778615
9.06513408,0.9997956542780908,86.52830563166594
9.072796672,0.9996635471984606,86.10849890639838
