freq,mag,phase
6.0,0.9999973010789407,126.25541356017152
6.008,0.9999972552222881,126.17880549057924
6.016,0.9999972096609516,126.10217714853094
6.024,0.9999971643936562,126.02552851406341
6.032,0.9999971194191285,125.94885956720735
6.04,0.9999970747360991,125.87217028798707
6.048,0.9999970303433008,125.79546065642099
6.056,0.9999969862394692,125.71873065252142
6.064,0.9999969424233427,125.64198025629469
6.072,0.9999968988936627,125.56520944774132
6.08,0.9999968556491736,125.48841820685608
6.088,0.9999968126886218,125.41160651362803
6.096,0.9999967700107577,125.33477434804055
6.104,0.9999967276143339,125.25792169007156
6.112,0.9999966854981055,125.18104851969345
6.12,0.9999966436608312,125.10415481687328
6.128,0.9999966021012721,125.02724056157274
6.136,0.9999965608181919,124.95030573374844
6.144,0.9999965198103578,124.8733503133517
6.152,0.9999964790765397,124.79637428032889
6.16,0.9999964386155096,124.71937761462134
6.168,0.9999963984260434,124.64236029616552
6.176,0.9999963585069189,124.56532230489313
6.184,0.9999963188569181,124.48826362073102
6.192,0.9999962794748244,124.41118422360154
6.2,0.9999962403594242,124.3340840934224
6.208,0.9999962015095084,124.25696321010682
6.216,0.9999961629238686,124.1798215535637
6.224,0.9999961246013009,124.10265910369753
6.232,0.9999960865406033,124.02547584040866
6.24,0.9999960487405777,123.94827174359327
6.248,0.999996011200027,123.8710467931434
6.256,0.9999959739177595,123.79380096894731
6.264,0.9999959368925846,123.71653425088917
6.272,0.9999959001233147,123.63924661884944
6.28,0.9999958636087664,123.56193805270492
6.288,0.999995827347757,123.48460853232865
6.296,0.999995791339109,123.4072580375902
6.304,0.9999957555816461,123.32988654835572
6.312,0.9999957200741965,123.25249404448793
6.32,0.9999956848155895,123.17508050584621
6.328,0.9999956498046586,123.0976459122869
6.336,0.9999956150402395,123.02019024366312
6.344,0.9999955805211713,122.94271347982499
6.352,0.999995546246296,122.86521560061972
6.36,0.9999955122144579,122.78769658589162
6.368,0.9999954784245051,122.7101564154823
6.376,0.9999954448752877,122.63259506923072
6.384,0.9999954115656595,122.55501252697313
6.392,0.9999953784944768,122.4774087685435
6.4,0.9999953456605991,122.39978377377324
6.408,0.9999953130628887,122.32213752249147
6.416,0.9999952807002104,122.24446999452515
6.424,0.9999952485714327,122.16678116969914
6.432,0.9999952166754265,122.08907102783614
6.44,0.999995185011066,122.011339548757
6.448,0.999995153577228,121.93358671228067
6.456,0.9999951223727923,121.85581249822441
6.464,0.9999950913966421,121.77801688640372
6.472,0.9999950606476625,121.70019985663257
6.48,0.9999950301247429,121.62236138872342
6.4879999999999995,0.9999949998267749,121.54450146248739
6.496,0.9999949697526527,121.46662005773422
6.504,0.9999949399012742,121.38871715427253
6.5120000000000005,0.99999491027154,121.31079273190974
6.52,0.9999948808623533,121.23284677045234
6.5280000000000005,0.9999948516726207,121.1548792497058
6.536,0.9999948227012518,121.07689014947489
6.5440000000000005,0.9999947939471586,120.99887944956352
6.552,0.999994765409257,120.92084712977503
6.5600000000000005,0.9999947370864647,120.84279316991214
6.568,0.9999947089777035,120.76471754977729
6.5760000000000005,0.9999946810818973,120.68662024917231
6.584,0.9999946533979734,120.60850124789903
6.592,0.9999946259248622,120.53036052575895
6.6,0.9999945986614964,120.45219806255358
6.608,0.9999945716068128,120.3740138380845
6.616,0.9999945447597502,120.29580783215326
6.624,0.9999945181192506,120.21758002456184
6.632,0.9999944916842592,120.13933039511242
6.64,0.9999944654537244,120.06105892360766
6.648,0.9999944394265967,119.98276558985071
6.656,0.9999944136018306,119.90445037364539
6.664,0.9999943879783829,119.82611325479617
6.672,0.9999943625552138,119.74775421310842
6.68,0.9999943373312863,119.66937322838832
6.688,0.9999943123055663,119.59097028044323
6.696,0.999994287477023,119.5125453490815
6.704,0.9999942628446282,119.43409841411277
6.712,0.9999942384073573,119.35562945534795
6.72,0.9999942141641879,119.27713845259946
6.728,0.9999941901141015,119.19862538568113
6.736,0.9999941662560815,119.12009023440851
6.744,0.9999941425891155,119.04153297859882
6.752,0.9999941191121934,118.96295359807115
6.76,0.9999940958243081,118.88435207264651
6.768,0.9999940727244555,118.80572838214796
6.776,0.9999940498116353,118.72708250640069
6.784,0.9999940270848487,118.64841442523216
6.792,0.9999940045431016,118.56972411847208
6.8,0.9999939821854018,118.49101156595272
6.808,0.9999939600107605,118.41227674750888
6.816,0.9999939380181915,118.33351964297802
6.824,0.9999939162067122,118.25474023220032
6.832,0.999993894575343,118.17593849501891
6.84,0.9999938731231071,118.0971144112798
6.848,0.99999385184903,118.01826796083222
6.856,0.9999938307521419,117.93939912352843
6.864,0.9999938098314746,117.8605078792241
6.872,0.9999937890860631,117.78159420777828
6.88,0.9999937685149461,117.70265808905347
6.888,0.9999937481171655,117.6236995029159
6.896,0.9999937278917646,117.54471842923542
6.904,0.9999937078377915,117.46571484788572
6.912,0.9999936879542963,117.38668873874454
6.92,0.9999936682403329,117.30764008169352
6.928,0.9999936486949575,117.22856885661858
6.936,0.9999936293172296,117.14947504340984
6.944,0.999993610106212,117.07035862196183
6.952,0.9999935910609701,116.99121957217353
6.96,0.9999935721805727,116.91205787394858
6.968,0.9999935534640916,116.83287350719526
6.976,0.9999935349106013,116.75366645182673
6.984,0.9999935165191794,116.67443668776106
6.992,0.9999934982889072,116.59518419492133
7.0,0.9999934802188684,116.51590895323578
7.008,0.9999934623081495,116.43661094263797
7.016,0.9999934445558408,116.35729014306678
7.024,0.9999934269610355,116.27794653446661
7.032,0.9999934095228292,116.19858009678744
7.04,0.9999933922403211,116.11919080998503
7.048,0.9999933751126132,116.03977865402084
7.056,0.999993358138811,115.96034360886243
7.064,0.9999933413180223,115.88088565448332
7.072,0.9999933246493588,115.8014047708632
7.08,0.9999933081319345,115.72190093798812
7.088,0.999993291764867,115.64237413585047
7.096,0.999993275547276,115.56282434444917
7.104,0.9999932594782859,115.48325154378976
7.112,0.9999932435570228,115.4036557138846
7.12,0.9999932277826163,115.32403683475285
7.128,0.9999932121541987,115.24439488642064
7.136,0.9999931966709064,115.16472984892125
7.144,0.9999931813318774,115.08504170229514
7.152,0.9999931661362538,115.00533042659019
7.16,0.9999931510831801,114.92559600186158
7.168,0.9999931361718047,114.84583840817223
7.176,0.9999931214012783,114.76605762559258
7.184,0.9999931067707546,114.68625363420107
7.192,0.9999930922793914,114.60642641408386
7.2,0.9999930779263476,114.52657594533534
7.208,0.9999930637107874,114.44670220805796
7.216,0.9999930496318767,114.3668051823625
7.224,0.999993035688785,114.28688484836813
7.232,0.999993021880684,114.20694118620254
7.24,0.9999930082067492,114.12697417600214
7.248,0.9999929946661595,114.046983797912
7.256,0.9999929812580964,113.96697003208618
7.264,0.9999929679817441,113.88693285868771
7.272,0.9999929548362901,113.80687225788877
7.28,0.9999929418209254,113.72678820987079
7.288,0.9999929289348434,113.6466806948246
7.296,0.9999929161772415,113.5665496929505
7.304,0.999992903547319,113.4863951844585
7.312,0.9999928910442788,113.40621714956829
7.32,0.999992878667327,113.32601556850945
7.328,0.9999928664156726,113.2457904215216
7.336,0.9999928542885276,113.16554168885446
7.344,0.9999928422851074,113.08526935076802
7.352,0.9999928304046296,113.00497338753264
7.36,0.9999928186463161,112.92465377942919
7.368,0.9999928070093909,112.84431050674915
7.376,0.9999927954930812,112.7639435497948
7.384,0.9999927840966175,112.6835528888793
7.392,0.9999927728192334,112.60313850432681
7.4,0.9999927616601655,112.5227003764726
7.4079999999999995,0.9999927506186532,112.44223848566325
7.416,0.9999927396939389,112.36175281225675
7.4239999999999995,0.9999927288852687,112.28124333662257
7.432,0.9999927181918912,112.20071003914185
7.4399999999999995,0.9999927076130584,112.12015290020756
7.448,0.9999926971480247,112.03957190022449
7.4559999999999995,0.9999926867960484,111.95896701960957
7.464,0.9999926765563902,111.87833823879186
7.4719999999999995,0.9999926664283142,111.7976855382127
7.48,0.9999926564110877,111.7170088983259
7.4879999999999995,0.9999926465039802,111.63630829959784
7.496,0.9999926367062657,111.55558372250755
7.504,0.9999926270172201,111.47483514754697
7.5120000000000005,0.9999926174361222,111.3940625552209
7.52,0.9999926079622549,111.31326592604735
7.5280000000000005,0.9999925985949033,111.23244524055745
7.536,0.9999925893333559,111.15160047929577
7.5440000000000005,0.9999925801769041,111.07073162282029
7.552,0.9999925711248424,110.98983865170273
7.5600000000000005,0.9999925621764684,110.90892154652846
7.568,0.9999925533310828,110.82798028789682
7.5760000000000005,0.9999925445879894,110.74701485642115
7.584,0.9999925359464942,110.66602523272897
7.5920000000000005,0.9999925274059078,110.58501139746208
7.6,0.9999925189655422,110.50397333127675
7.6080000000000005,0.9999925106247141,110.4229110148438
7.616,0.9999925023827413,110.34182442884878
7.6240000000000006,0.9999924942389465,110.26071355399203
7.632,0.9999924861926546,110.17957837098898
7.640000000000001,0.999992478243193,110.09841886057006
7.648,0.9999924703898935,110.01723500348108
7.656000000000001,0.9999924626320896,109.93602678048312
7.664,0.9999924549691184,109.85479417235294
7.672,0.9999924474003203,109.77353715988282
7.68,0.9999924399250383,109.69225572388099
7.688,0.9999924325426184,109.61094984517156
7.696,0.9999924252524103,109.52961950459473
7.704,0.9999924180537657,109.44826468300698
7.712,0.9999924109460405,109.36688536128115
7.72,0.999992403928592,109.28548152030653
7.728,0.9999923970007827,109.20405314098917
7.736,0.9999923901619764,109.12260020425185
7.744,0.9999923834115404,109.04112269103433
7.752,0.9999923767488451,108.95962058229338
7.76,0.9999923701732638,108.8780938590031
7.768,0.9999923636841735,108.79654250215486
7.776,0.9999923572809534,108.71496649275758
7.784,0.9999923509629853,108.63336581183788
7.792,0.9999923447296556,108.5517404404401
7.8,0.9999923385803525,108.47009035962655
7.808,0.9999923325144675,108.38841555047763
7.816,0.999992326531395,108.306715994092
7.824,0.9999923206305326,108.22499167158666
7.832,0.9999923148112807,108.14324256409714
7.84,0.9999923090730432,108.06146865277762
7.848,0.9999923034152264,107.97966991880115
7.856,0.9999922978372401,107.89784634335967
7.864,0.9999922923384965,107.8159979076643
7.872,0.9999922869184115,107.73412459294536
7.88,0.9999922815764033,107.65222638045259
7.888,0.9999922763118937,107.57030325145529
7.896,0.999992271124307,107.48835518724243
7.904,0.9999922660130711,107.40638216912288
7.912,0.9999922609776164,107.32438417842545
7.92,0.9999922560173763,107.24236119649915
7.928,0.9999922511317872,107.16031320471322
7.936,0.9999922463202888,107.07824018445739
7.944,0.9999922415823238,106.99614211714199
7.952,0.9999922369173373,106.91401898419807
7.96,0.9999922323247774,106.83187076707759
7.968,0.9999922278040961,106.74969744725357
7.976,0.9999922233547478,106.6674990062202
7.984,0.9999922189761894,106.58527542549307
7.992,0.9999922146678818,106.50302668660922
8.0,0.9999922104292877,106.42075277112737
8.008,0.9999922062598736,106.33845366062806
8.016,0.9999922021591091,106.25612933671378
8.024000000000001,0.9999921981264656,106.17377978100915
8.032,0.999992194161419,106.09140497516107
8.04,0.999992190263447,106.0090049008388
8.048,0.999992186432031,105.92657953973426
8.056000000000001,0.9999921826666545,105.84412887356208
8.064,0.9999921789668051,105.76165288405977
8.072,0.9999921753319723,105.6791515529879
8.08,0.999992171761649,105.5966248621302
8.088000000000001,0.9999921682553312,105.51407279329379
8.096,0.9999921648125174,105.43149532830938
8.104,0.9999921614327094,105.34889244903123
8.112,0.9999921581154119,105.26626413733746
8.120000000000001,0.9999921548601324,105.18361037513021
8.128,0.9999921516663813,105.10093114433579
8.136,0.9999921485336724,105.01822642690475
8.144,0.9999921454615215,104.93549620481213
8.152000000000001,0.9999921424494482,104.85274046005759
8.16,0.9999921394969745,104.76995917466562
8.168,0.999992136603626,104.68715233068555
8.176,0.9999921337689301,104.60431991019188
8.184000000000001,0.9999921309924181,104.52146189528439
8.192,0.9999921282736237,104.43857826808824
8.2,0.9999921256120836,104.35566901075418
8.208,0.9999921230073378,104.27273410545872
8.216000000000001,0.9999921204589285,104.18977353440425
8.224,0.9999921179664014,104.1067872798193
8.232,0.9999921155293047,104.02377532395855
8.24,0.9999921131471898,103.9407376491031
8.248000000000001,0.9999921108196107,103.8576742375606
8.256,0.9999921085461244,103.77458507166553
8.264,0.999992106326291,103.69147013377906
8.272,0.999992104159673,103.60832940628956
8.280000000000001,0.9999921020458363,103.52516287161254
8.288,0.9999920999843496,103.44197051219096
8.296,0.9999920979747836,103.35875231049525
8.304,0.9999920960167135,103.27550824902357
8.312,0.9999920941097162,103.19223831030202
8.32,0.9999920922533714,103.10894247688461
8.328,0.9999920904472618,103.02562073135371
8.336,0.9999920886909737,102.94227305631995
8.344,0.9999920869840955,102.85889943442257
8.352,0.9999920853262181,102.77549984832947
8.36,0.9999920837169367,102.69207428073749
8.368,0.9999920821558476,102.60862271437246
8.376,0.9999920806425512,102.52514513198946
8.384,0.9999920791766502,102.44164151637288
8.392,0.99999207775775,102.35811185033684
8.4,0.9999920763854596,102.27455611672494
8.408,0.9999920750593894,102.19097429841091
8.416,0.999992073779154,102.10736637829835
8.424,0.9999920725443706,102.02373233932123
8.432,0.9999920713546584,101.94007216444385
8.44,0.9999920702096403,101.8563858366611
8.448,0.9999920691089411,101.77267333899866
8.456,0.9999920680521894,101.68893465451306
8.464,0.9999920670390162,101.60516976629197
8.472,0.9999920660690548,101.52137865745432
8.48,0.9999920651419419,101.43756131115045
8.488,0.9999920642573172,101.35371771056236
8.496,0.9999920634148222,101.26984783890376
8.504,0.9999920626141022,101.18595167942041
8.512,0.9999920618548046,101.10202921539012
8.52,0.9999920611365798,101.01808043012306
8.528,0.9999920604590813,100.93410530696187
8.536,0.9999920598219645,100.85010382928182
8.544,0.9999920592248885,100.76607598049105
8.552,0.9999920586675147,100.68202174403072
8.56,0.9999920581495073,100.59794110337509
8.568,0.999992057670533,100.5138340420319
8.576,0.9999920572302623,100.42970054354232
8.584,0.9999920568283666,100.34554059148134
8.592,0.9999920564645213,100.26135416945775
8.6,0.9999920561384047,100.17714126111447
8.608,0.9999920558496976,100.09290185012864
8.616,0.9999920555980829,100.00863592021187
8.624,0.9999920553832464,99.92434345511032
8.632,0.9999920552048774,99.84002443860497
8.64,0.9999920550626675,99.75567885451174
8.648,0.9999920549563102,99.67130668668176
8.656,0.9999920548855027,99.58690791900142
8.664,0.9999920548499448,99.50248253539264
8.672,0.9999920548493388,99.41803051981303
8.68,0.999992054883389,99.33355185625608
8.688,0.9999920549518038,99.24904652875128
8.696,0.9999920550542929,99.16451452136444
8.704,0.9999920551905699,99.07995581819769
8.712,0.9999920553603499,98.99537040338984
8.72,0.9999920555633515,98.91075826111638
8.728,0.9999920557992952,98.82611937558991
8.736,0.9999920560679054,98.74145373106002
8.744,0.9999920563689078,98.65676131181374
8.752,0.999992056702031,98.57204210217554
8.76,0.9999920570670072,98.48729608650768
8.768,0.9999920574635704,98.40252324921018
8.776,0.9999920578914574,98.31772357472123
8.784,0.999992058350407,98.23289704751723
8.792,0.9999920588401622,98.14804365211306
8.8,0.9999920593604671,98.06316337306214
8.808,0.9999920599110688,97.97825619495681
8.815999999999999,0.9999920604917173,97.89332210242834
8.824,0.9999920611021655,97.80836108014717
8.832,0.9999920617421679,97.72337311282315
8.84,0.9999920624114822,97.63835818520573
8.847999999999999,0.9999920631098687,97.55331628208405
8.856,0.99999206383709,97.46824738828715
8.864,0.9999920645929118,97.38315148868429
8.872,0.9999920653771016,97.298028568185
8.879999999999999,0.9999920661894303,97.21287861173931
8.888,0.9999920670296706,97.12770160433791
8.896,0.9999920678975978,97.04249753101246
8.904,0.9999920687929905,96.95726637683559
8.911999999999999,0.9999920697156296,96.8720081269213
8.92,0.9999920706652976,96.78672276642493
8.928,0.9999920716417803,96.70141028054354
8.936,0.9999920726448662,96.61607065451605
8.943999999999999,0.9999920736743461,96.53070387362331
8.952,0.9999920747300131,96.44530992318849
8.96,0.9999920758116627,96.35988878857708
8.968,0.9999920769190936,96.27444045519728
8.975999999999999,0.999992078052106,96.1889649085
8.984,0.9999920792105037,96.10346213397915
8.992,0.9999920803940923,96.01793211717188
9.0,0.9999920816026796,95.93237484365868
9.008,0.9999920828360762,95.84679029906363
9.016,0.9999920840940955,95.7611784690545
9.024000000000001,0.999992085376553,95.67553933934313
9.032,0.9999920866832668,95.58987289568547
9.04,0.9999920880140573,95.50417912388184
9.048,0.9999920893687471,95.41845800977704
9.056000000000001,0.9999920907471619,95.33270953926068
9.064,0.9999920921491292,95.24693369826731
9.072,0.9999920935744794,95.16113047277658
9.08,0.9999920950230448,95.07529984881347
9.088000000000001,0.9999920964946604,94.98944181244853
9.096,0.9999920979891638,94.90355634979802
9.104,0.9999920995063943,94.81764344702411
9.112,0.9999921010461945,94.73170309033509
9.120000000000001,0.9999921026084089,94.64573526598558
9.128,0.9999921041928845,94.55973996027674
9.136,0.99999210579947,94.47371715955643
9.144,0.9999921074280174,94.38766685021938
9.152000000000001,0.999992109078381,94.30158901870752
9.16,0.9999921107504166,94.21548365151008
9.168,0.9999921124439832,94.12935073516375
9.176,0.9999921141589416,94.04319025625296
9.184000000000001,0.9999921158951555,93.95700220141008
9.192,0.9999921176524901,93.8707865573156
9.2,0.9999921194308137,93.7845433106983
9.208,0.9999921212299965,93.69827244833544
9.216000000000001,0.9999921230499109,93.61197395705315
9.224,0.9999921248904322,93.52564782372633
9.232,0.999992126751437,93.43929403527908
9.24,0.999992128632805,93.35291257868478
9.248000000000001,0.9999921305344182,93.26650344096639
9.256,0.99999213245616,93.18006660919661
9.264,0.9999921343979171,93.09360207049804
9.272,0.9999921363595778,93.0071098120434
9.280000000000001,0.9999921383410327,92.9205898210558
9.288,0.9999921403421752,92.83404208480893
9.296,0.9999921423629,92.74746659062713
9.304,0.999992144403105,92.6608633258858
9.312000000000001,0.9999921464626893,92.57423227801142
9.32,0.999992148541555,92.4875734344819
9.328,0.9999921506396061,92.40088678282673
9.336,0.9999921527567491,92.31417231062707
9.344,0.9999921548928921,92.22743000551621
9.352,0.9999921570479458,92.14065985517952
9.36,0.9999921592218229,92.05386184735485
9.368,0.9999921614144385,91.96703596983258
9.376,0.9999921636257096,91.88018221045596
9.384,0.9999921658555554,91.7933005571212
9.392,0.9999921681038972,91.7063909977778
9.4,0.9999921703706587,91.61945352042865
9.408,0.9999921726557656,91.5324881131303
9.416,0.9999921749591454,91.44549476399314
9.424,0.9999921772807281,91.3584734611816
9.432,0.9999921796204454,91.27142419291442
9.44,0.9999921819782319,91.1843469474648
9.448,0.9999921843540235,91.0972417131606
9.456,0.999992186747758,91.01010847838461
9.464,0.9999921891593764,90.92294723157467
9.472,0.9999921915888208,90.83575796122399
9.48,0.9999921940360352,90.74854065588129
9.488,0.9999921965009667,90.66129530415101
9.496,0.9999921989835633,90.57402189469354
9.504,0.9999922014837758,90.48672041622545
9.512,0.9999922040015568,90.3993908575196
9.52,0.9999922065368606,90.31203320740556
9.528,0.9999922090896439,90.22464745476955
9.536,0.9999922116598651,90.13723358855489
9.544,0.9999922142474854,90.04979159776204
9.552,0.9999922168524666,89.96232147144897
9.56,0.9999922194747735,89.8748231987312
9.568,0.9999922221143726,89.78729676878218
9.576,0.9999922247712323,89.69974217083335
