freq,mag,phase
6.0,0.9999907395492527,51.54565461338644
6.008,0.9999900064713187,51.35155507987632
6.016,0.9999892821671884,51.157392727487824
6.024,0.9999885666302053,50.963167684010564
6.032,0.9999878598529224,50.76888007807967
6.04,0.9999871618271108,50.57453003917546
6.048,0.9999864725437667,50.38011769762301
6.056,0.9999857919931177,50.18564318459167
6.064,0.9999851201646307,49.99110663209475
6.072,0.9999844570470195,49.7965081729889
6.08,0.9999838026282519,49.60184794097374
6.088,0.9999831568955565,49.407126070591275
6.096,0.9999825198354299,49.2123426972254
6.104,0.9999818914336455,49.01749795710132
6.112,0.9999812716752574,48.822591987285
6.12,0.9999806605446112,48.62762492568255
6.128,0.9999800580253493,48.432596911039624
6.136,0.9999794641004183,48.237508082940764
6.144,0.9999788787520764,48.04235858180876
6.152,0.9999783019618993,47.847148548903924
6.16,0.9999777337107907,47.651878126323496
6.168,0.9999771739789857,47.456547457000724
6.176,0.9999766227460594,47.26115668470433
6.184,0.9999760799909346,47.065705954037604
6.192,0.9999755456918882,46.87019541043767
6.2,0.9999750198265586,46.674625200174624
6.208,0.9999745023719522,46.47899547035079
6.216,0.9999739933044515,46.28330636889976
6.224,0.999973492599821,46.087558044585585
6.232,0.9999730002332151,45.891750647001864
6.24,0.9999725161791849,45.69588432657077
6.248,0.999972040411685,45.49995923454221
6.256,0.9999715729040806,45.30397552299276
6.264,0.9999711136291545,45.107933344824694
6.272,0.9999706625591148,44.91183285376507
6.28,0.9999702196656002,44.71567420436453
6.288,0.9999697849196882,44.51945755199641
6.296,0.9999693582919024,44.323183052855526
6.304,0.9999689397522182,44.1268508639572
6.312,0.9999685292700704,43.930461143136036
6.32,0.99996812681436,43.73401404904483
6.328,0.999967732353461,43.537509741153414
6.336,0.9999673458552275,43.34094837974739
6.344,0.9999669672870006,43.144330125927034
6.352,0.9999665966156145,42.94765514160596
6.36,0.9999662338074041,42.75092358950994
6.368,0.9999658788282116,42.55413563317556
6.376,0.9999655316433931,42.357291436948955
6.384,0.9999651922178251,42.1603911659845
6.392,0.9999648605159128,41.96343498624342
6.4,0.9999645365015943,41.76642306449249
6.408,0.9999642201383497,41.56935556830256
6.416,0.9999639113892065,41.3722326660472
6.424,0.9999636102167463,41.17505452690125
6.432,0.999963316583112,40.977821320839304
6.44,0.9999630304500144,40.78053321863435
6.448,0.9999627517787388,40.583190391856185
6.456,0.9999624805301502,40.38579301286986
6.464,0.999962216664703,40.1883412548342
6.472,0.9999619601424445,39.990835291700186
6.48,0.999961710923023,39.79327529820938
6.4879999999999995,0.9999614689656944,39.59566144989233
6.496,0.9999612342293277,39.3979939230668
6.504,0.999961006672413,39.20027289483637
6.5120000000000005,0.9999607862530666,39.0024985430884
6.52,0.9999605729290382,38.80467104649271
6.5280000000000005,0.9999603666577174,38.60679058449945
6.536,0.9999601673961394,38.408857337337686
6.5440000000000005,0.9999599751009927,38.2108714860134
6.552,0.9999597897286239,38.01283321230783
6.5600000000000005,0.9999596112350457,37.8147426987755
6.568,0.9999594395759417,37.61660012874257
6.5760000000000005,0.999959274706674,37.41840568630472
6.584,0.9999591165822886,37.22015955632557
6.592,0.9999589651575226,37.02186192443445
6.6,0.9999588203868095,36.82351297702466
6.608,0.999958682224286,36.62511290125148
6.616,0.9999585506237979,36.42666188503012
6.624,0.9999584255389072,36.22816011703381
6.632,0.9999583069228968,36.0296077866917
6.64,0.9999581947287776,35.83100508418683
6.648,0.999958088909295,35.632352200454065
6.656,0.9999579894169338,35.43364932717803
6.664,0.9999578962039259,35.23489665679091
6.672,0.9999578092222543,35.0360943824704
6.68,0.9999577284236613,34.837242698137466
6.688,0.9999576537596532,34.63834179845423
6.696,0.999957585181506,34.43939187882171
6.704,0.9999575226402733,34.240393135377595
6.712,0.99995746608679,34.04134576499402
6.72,0.9999574154716793,33.842249965275265
6.728,0.9999573707453587,33.64310593455547
6.736,0.9999573318580459,33.4439138718963
6.744,0.9999572987597638,33.244673977084624
6.752,0.9999572714003474,33.04538645063011
6.76,0.9999572497294493,32.8460514937629
6.768,0.999957233696545,32.64666930843117
6.776,0.9999572232509392,32.44724009729861
6.784,0.9999572183417711,32.247764063742174
6.792,0.9999572189180209,32.048241411849375
6.8,0.9999572249285146,31.848672346415945
6.808,0.9999572363219303,31.649057072943258
6.816,0.9999572530468026,31.44939579763576
6.824,0.9999572750515302,31.249688727398464
6.832,0.9999573022843798,31.049936069834303
6.84,0.9999573346934927,30.850138033241606
6.848,0.9999573722268895,30.650294826611315
6.856,0.9999574148324762,30.45040665962451
6.864,0.9999574624580496,30.25047374264961
6.872,0.999957515051302,30.05049628673973
6.88,0.999957572559828,29.850474503629936
6.888,0.9999576349311288,29.65040860573453
6.896,0.9999577021126176,29.450298806144264
6.904,0.9999577740516256,29.250145318623574
6.912,0.9999578506954069,29.049948357607775
6.92,0.9999579319911434,28.849708138200224
6.928,0.9999580178859512,28.64942487616946
6.936,0.9999581083268845,28.44909878794636
6.944,0.9999582032609411,28.24873009062126
6.952,0.9999583026350691,28.048319001940985
6.96,0.9999584063961694,27.847865740305977
6.968,0.9999585144911032,27.647370524767293
6.976,0.999958626866695,27.446833575023682
6.984,0.9999587434697399,27.246255111418535
6.992,0.9999588642470071,27.045635354936877
7.0,0.9999589891452447,26.84497452720237
7.008,0.9999591181111855,26.644272850474223
7.016,0.9999592510915523,26.4435305476441
7.024,0.9999593880330608,26.24274784223304
7.032,0.9999595288824277,26.041924958388318
7.04,0.9999596735863718,25.84106212088033
7.048,0.9999598220916216,25.640159555099398
7.056,0.999959974344919,25.439217487052623
7.064,0.9999601302930246,25.238236143360627
7.072,0.9999602898827212,25.03721575125442
7.08,0.9999604530608204,24.83615653857204
7.088,0.9999606197741652,24.63505873375538
7.096,0.9999607899696358,24.433922565846874
7.104,0.9999609635941549,24.232748264486187
7.112,0.9999611405946905,24.031536059906898
7.12,0.9999613209182615,23.83028618293316
7.128,0.9999615045119421,23.62899886497632
7.136,0.9999616913228663,23.42767433803156
7.144,0.9999618812982323,23.226312834674474
7.152,0.9999620743853064,23.02491458805768
7.16,0.999962270531428,22.823479831907306
7.168,0.9999624696840145,22.622008800519634
7.176,0.9999626717905639,22.420501728757536
7.184,0.9999628767986602,22.218958852047002
7.192,0.9999630846559783,22.01738040637363
7.2,0.9999632953102865,21.815766628279057
7.208,0.999963508709452,21.614117754857514
7.216,0.9999637248014449,21.41243402375207
7.224,0.9999639435343418,21.210715673151196
7.232,0.9999641648563302,21.008962941785068
7.24,0.9999643887157122,20.80717606892199
7.248,0.9999646150609093,20.605355294364717
7.256,0.9999648438404659,20.403500858446787
7.264,0.9999650750030532,20.201613002028836
7.272,0.9999653084974726,19.99969196649494
7.28,0.9999655442726608,19.797737993748814
7.288,0.9999657822776932,19.595751326210166
7.296,0.9999660224617867,19.393732206810835
7.304,0.9999662647743053,19.191680878991153
7.312,0.9999665091647622,18.989597586696032
7.32,0.999966755582824,18.787482574371218
7.328,0.9999670039783152,18.58533608695948
7.336,0.9999672543012207,18.383158369896677
7.344,0.9999675065016901,18.180949669108042
7.352,0.9999677605300413,17.978710231004175
7.36,0.9999680163367636,17.77644030247722
7.368,0.999968273872521,17.57414013089696
7.376,0.9999685330881571,17.37180996410683
7.384,0.9999687939346966,17.169450050420064
7.392,0.9999690563633502,16.967060638615663
7.4,0.9999693203255174,16.76464197793443
7.4079999999999995,0.9999695857727898,16.562194318075054
7.416,0.9999698526569543,16.35971790918996
7.4239999999999995,0.9999701209299965,16.157213001881495
7.432,0.9999703905441043,15.954679847197601
7.4399999999999995,0.9999706614516704,15.752118696628127
7.448,0.9999709336052962,15.549529802100368
7.4559999999999995,0.999971206957794,15.346913415975358
7.464,0.999971481462191,15.144269791043413
7.4719999999999995,0.9999717570717319,14.941599180520367
7.48,0.9999720337398821,14.73890183804309
7.4879999999999995,0.9999723114203303,14.536178017665701
7.496,0.9999725900669921,14.333427973855063
7.504,0.9999728696340122,14.130651961486935
7.5120000000000005,0.9999731500757678,13.927850235841476
7.52,0.999973431346871,13.725023052599358
7.5280000000000005,0.9999737134021723,13.522170667837216
7.536,0.999973996196763,13.319293338023762
7.5440000000000005,0.9999742796859767,13.116391320015207
7.552,0.999974563825395,12.913464871051342
7.5600000000000005,0.999974848570847,12.710514248750911
7.568,0.9999751338784134,12.507539711107686
7.5760000000000005,0.9999754197044295,12.304541516485825
7.584,0.9999757060054869,12.101519923615912
7.5920000000000005,0.9999759927384362,11.898475191590261
7.6,0.9999762798603901,11.695407579858966
7.6080000000000005,0.9999765673287244,11.492317348225173
7.616,0.9999768551010825,11.289204756841096
7.6240000000000006,0.9999771431353759,11.08607006620326
7.632,0.9999774313897875,10.882913537148495
7.640000000000001,0.9999777198227736,10.679735430849172
7.648,0.999978008393067,10.476536008809164
7.656000000000001,0.9999782970596776,10.273315532859035
7.664,0.9999785857818955,10.070074265152021
7.672,0.9999788745192937,9.866812468159173
7.68,0.9999791632317296,9.663530404665227
7.688,0.9999794518793466,9.460228337763976
7.696,0.999979740422578,9.256906530853808
7.704,0.9999800288221461,9.053565247633282
7.712,0.999980317039067,8.850204752096547
7.72,0.9999806050346512,8.646825308528879
7.728,0.9999808927705054,8.443427181502166
7.736,0.999981180208535,8.240010635870346
7.744,0.9999814673109453,8.036575936764898
7.752,0.9999817540402439,7.833123349590268
7.76,0.9999820403592419,7.6296531400193315
7.768,0.9999823262310563,7.426165573988794
7.776,0.9999826116191111,7.22266091769465
7.784,0.999982896487139,7.019139437587566
7.792,0.9999831807991836,6.815601400368293
7.8,0.9999834645196003,6.6120470729830645
7.808,0.9999837476130581,6.408476722618971
7.816,0.9999840300445422,6.204890616699348
7.824,0.9999843117793528,6.001289022879135
7.832,0.9999845927831092,5.797672209040248
7.84,0.9999848730217504,5.594040443286913
7.848,0.9999851524615357,5.390393993941023
7.856,0.999985431069047,5.186733129537475
7.864,0.9999857088111899,4.983058118819491
7.872,0.9999859856551945,4.7793692307339395
7.88,0.9999862615686167,4.575666734426661
7.888,0.9999865365193412,4.371950899237757
7.896,0.9999868104755794,4.168221994696904
7.904,0.9999870834058727,3.9644802905186425
7.912,0.9999873552790942,3.760726056597656
7.92,0.9999876260644477,3.5569595630040634
7.928,0.9999878957314701,3.3531810799786825
7.936,0.9999881642500318,3.149390877928308
7.944,0.999988431590339,2.945589227420962
7.952,0.9999886977229323,2.7417763991811586
7.96,0.9999889626186891,2.53795266408515
7.968,0.9999892262488256,2.334118293156171
7.976,0.9999894885848941,2.130273557559687
7.984,0.999989749598788,1.9264187285986156
7.992,0.9999900092627387,1.7225540777085693
8.0,0.9999902675493194,1.5186798764530738
8.008,0.999990524431444,1.314796396518813
8.016,0.9999907798823688,1.110903909710732
8.024000000000001,0.9999910338756917,0.9070026879474553
8.032,0.9999912863853544,0.7030930032563782
8.04,0.9999915373856421,0.49917512776878525
8.048,0.999991786851184,0.2952493337151379
8.056000000000001,0.9999920347569538,0.09131589342036416
8.064,0.9999922810782711,-0.11262492070103852
8.072,0.9999925257908006,-0.3165728361499012
8.08,0.9999927688705526,-0.5205275803471067
8.088000000000001,0.9999930102938837,-0.7244888806383136
8.096,0.999993250037498,-0.9284564642988616
8.104,0.9999934880784455,-1.1324300585386844
8.112,0.9999937243941242,-1.3364093905070418
8.120000000000001,0.9999939589622786,-1.5403941872972495
8.128,0.9999941917610016,-1.7443841759515983
8.136,0.999994422768734,-1.9483790834662718
8.144,0.9999946519642633,-2.152378636796085
8.152000000000001,0.9999948793267264,-2.3563825628592205
8.16,0.9999951048356076,-2.560390588542158
8.168,0.9999953284707396,-2.764402440704591
8.176,0.9999955502123024,-2.9684178461841753
8.184000000000001,0.9999957700408255,-3.1724365318012593
8.192,0.9999959879371856,-3.37645822436383
8.2,0.9999962038826071,-3.580482650672422
8.208,0.9999964178586629,-3.7845095375248694
8.216000000000001,0.9999966298472731,-3.9885386117210424
8.224,0.9999968398307063,-4.19256960006778
8.232,0.9999970477915769,-4.396602229383816
8.24,0.9999972537128476,-4.600636226504509
8.248000000000001,0.9999974575778277,-4.804671318286606
8.256,0.999997659370172,-5.008707231613143
8.264,0.9999978590738838,-5.212743693398372
8.272,0.9999980566733094,-5.4167804305925165
8.280000000000001,0.9999982521531432,-5.620817170186482
8.288,0.999998445498422,-5.8248536392167996
8.296,0.9999986366945299,-6.0288895647705125
8.304,0.9999988257271932,-6.232924673989934
8.312,0.9999990125824828,-6.436958694077311
8.32,0.999999197246812,-6.640991352299981
8.328,0.9999993797069376,-6.845022375994793
8.336,0.9999995599499573,-7.04905149257332
8.344,0.9999997379633111,-7.253078429526269
8.352,0.9999999137347789,-7.457102914428692
8.36,1.0,-7.6611246749443795
8.368,1.0,-7.865143438831054
8.376,0.9999999999999999,-8.0691589339448
8.384,0.9999999999999999,-8.273170888245216
8.392,0.9999999999999998,-8.477179029799828
8.4,0.9999999999999999,-8.681183086789249
8.408,1.0,-8.88518278751161
8.416,0.9999999999999999,-9.089177860387668
8.424,0.9999999999999999,-9.293168033965227
8.432,0.9999999999999999,-9.497153036924292
8.44,1.0,-9.701132598081408
8.448,1.0,-9.905106446394852
8.456,1.0,-10.109074310968952
8.464,0.9999999999999999,-10.313035921059248
8.472,0.9999999999999999,-10.516991006076843
8.48,1.0,-10.720939295593507
8.488,1.0,-10.924880519346011
8.496,1.0,-11.128814407241288
8.504,0.9999999999999999,-11.3327406893607
8.512,1.0,-11.536659095965147
8.52,0.9999999999999999,-11.740569357499423
8.528,1.0,-11.944471204597246
8.536,0.9999999999999999,-12.148364368085597
8.544,0.9999999999999999,-12.352248578989741
8.552,1.0,-12.55612356853758
8.56,1.0,-12.759989068164648
8.568,1.0,-12.963844809518413
8.576,0.9999999999999998,-13.167690524463309
8.584,0.9999999999999999,-13.371525945084981
8.592,1.0,-13.575350803695311
8.6,1.0,-13.779164832836674
8.608,1.0,-13.982967765286919
8.616,1.0,-14.186759334063597
8.624,0.9999999999999998,-14.39053927242896
8.632,0.9999999999999999,-14.594307313894152
8.64,0.9999999999999999,-14.798063192224188
8.648,0.9999999999999998,-15.001806641442125
8.656,1.0,-15.205537395834012
8.664,0.9999999999999999,-15.409255189953106
8.672,0.9999999999999999,-15.612959758624717
8.68,1.0,-15.816650836950439
8.688,0.9999999999999999,-16.020328160312985
8.696,1.0,-16.223991464380386
8.704,0.9999999999999999,-16.427640485110825
8.712,0.9999999999999998,-16.63127495875678
8.72,1.0,-16.83489462186986
8.728,0.9999999999999999,-17.038499211304938
8.736,0.9999999999999999,-17.242088464224924
8.744,0.9999999999999999,-17.445662118104906
8.752,0.9999999999999999,-17.649219910736928
8.76,0.9999999999999999,-17.852761580234038
8.768,1.0,-18.05628686503509
8.776,0.9999999999999999,-18.259795503908794
8.784,0.9999999999999999,-18.463287235958408
8.792,0.9999999999999999,-18.66676180062584
8.8,0.9999999999999998,-18.870218937696304
8.808,0.9999999999999999,-19.073658387302377
8.815999999999999,1.0,-19.27707988992859
8.824,1.0,-19.480483186415693
8.832,1.0,-19.683868017964826
8.84,1.0,-19.887234126141923
8.847999999999999,1.0,-20.090581252882124
8.856,1.0,-20.29390914049396
8.864,0.9999999999999999,-20.497217531663466
8.872,1.0,-20.700506169458595
8.879999999999999,1.0,-20.90377479733352
8.888,1.0,-21.10702315913276
8.896,1.0,-21.310250999095313
8.904,1.0,-21.513458061858934
8.911999999999999,1.0,-21.71664409246441
8.92,0.9999999999999999,-21.91980883635963
8.928,0.9999999999999999,-22.122952039403675
8.936,0.9999999999999999,-22.326073447871007
8.943999999999999,0.9999999999999999,-22.529172808455737
8.952,1.0,-22.73224986827558
8.96,1.0,-22.935304374875923
8.968,1.0,-23.138336076233944
8.975999999999999,0.9999999999999999,-23.34134472076281
8.984,1.0,-23.544330057315605
8.992,0.9999999999999998,-23.747291835189284
9.0,1.0,-23.950229804128796
9.008,1.0,-24.15314371433116
9.016,1.0,-24.356033316449363
9.024000000000001,1.0,-24.558898361596256
9.032,1.0,-24.761738601348586
9.04,1.0,-24.96455378775105
9.048,0.9999999999999999,-25.167343673320083
9.056000000000001,1.0,-25.37010801104772
9.064,0.9999999999999999,-25.572846554405565
9.072,1.0,-25.775559057348747
9.08,1.0,-25.978245274319683
9.088000000000001,1.0,-26.18090496025186
9.096,1.0,-26.3835378705737
9.104,0.9999999999999999,-26.586143761212515
9.112,1.0,-26.788722388598167
9.120000000000001,0.9999999999999999,-26.991273509666765
9.128,0.9999999999999999,-27.193796881864515
9.136,1.0,-27.396292263151523
9.144,0.9999999999999999,-27.59875941200548
9.152000000000001,1.0,-27.801198087425224
9.16,1.0,-28.00360804893453
9.168,1.0,-28.20598905658589
9.176,1.0,-28.40834087096405
9.184000000000001,1.0,-28.610663253189568
9.192,1.0,-28.812955964922487
9.2,1.0,-29.01521876836607
9.208,1.0,-29.217451426270276
9.216000000000001,0.9999999999999999,-29.41965370193519
9.224,0.9999999999999999,-29.621825359214693
9.232,1.0,-29.823966162520076
9.24,1.0,-30.026075876823434
9.248000000000001,1.0,-30.22815426766106
9.256,0.9999999999999999,-30.430201101137044
9.264,1.0,-30.632216143926765
9.272,0.9999999999999999,-30.834199163280246
9.280000000000001,1.0,-31.036149927025495
9.288,1.0,-31.23806820357192
9.296,1.0,-31.439953761913905
9.304,0.9999999999999998,-31.64180637163397
9.312000000000001,0.9999999999999999,-31.843625802906043
9.32,1.0,-32.0454118264989
9.328,1.0,-32.247164213779484
9.336,0.9999999999999998,-32.44888273671619
9.344,1.0,-32.65056716788187
9.352,1.0,-32.85221728045747
9.36,1.0,-33.05383284823483
9.368,1.0,-33.25541364562033
9.376,0.9999999999999999,-33.45695944763756
9.384,0.9999999999999999,-33.658470029930974
9.392,1.0,-33.859945168768604
9.4,0.9999999999999999,-34.061384641045514
9.408,1.0,-34.262788224286645
9.416,1.0,-34.46415569665009
9.424,1.0,-34.66548683692992
9.432,1.0,-34.866781424559555
9.44,0.9999999999999999,-35.06803923961434
9.448,1.0,-35.269260062815036
9.456,0.9999999999999999,-35.47044367553026
9.464,0.9999999999999999,-35.67158985978002
9.472,1.0,-35.87269839823807
9.48,0.9999999999999999,-36.07376907423532
9.488,1.0,-36.274801671762326
9.496,0.9999999999999999,-36.4757959754725
9.504,1.0,-36.67675177068467
9.512,1.0,-36.877668843386154
9.52,1.0,-37.07854698023538
9.528,0.9999999999999999,-37.279385968564824
9.536,0.9999999999999999,-37.48018559638362
9.544,1.0,-37.680945652380494
9.552,1.0,-37.881665925926285
9.56,0.9999999999999999,-38.08234620707686
9.568,0.9999999999999999,-38.28298628657552
9.576,1.0,-38.48358595585607
9.584,0.9999999743618863,-38.684145007044975
9.592,0.9999998366652922,-38.88466323296445
9.6,0.9999996980357776,-39.0851404271346
9.608,0.9999995584939015,-39.28557638377646
9.616,0.9999994180602554,-39.485970897814106
9.624,0.999999276755463,-39.68632376487761
9.632,0.9999991346001768,-39.886634781305155
9.64,0.9999989916150753,-40.086903744145864
9.648,0.9999988478208612,-40.28713045116201
9.656,0.9999987032382609,-40.487314700831675
9.664,0.9999985578880184,-40.687456292350994
9.672,0.999998411790897,-40.88755502563671
9.68,0.9999982649676743,-41.087610701328416
9.688,0.9999981174391418,-41.28762312079114
9.696,0.999997969226101,-41.487592086117346
9.704,0.9999978203493629,-41.68751740012962
9.712,0.9999976708297442,-41.887398866382654
9.72,0.9999975206880665,-42.08723628916582
9.728,0.9999973699451534,-42.2870294735051
9.736,0.999997218621828,-42.486778225165615
9.744,0.9999970667389115,-42.686482350653634
9.752,0.9999969143172208,-42.88614165721888
9.76,0.9999967613775657,-43.08575595285659
9.768,0.9999966079407476,-43.28532504630986
9.776,0.9999964540275571,-43.48484874707143
9.784,0.9999962996587719,-43.68432686538623
9.792,0.9999961448551546,-43.883759212253
