freq,mag,phase
6.0,0.9998655894431908,-95.4972686262449
6.002286592,1.0000079451812025,-95.62659466103383
6.004572672,1.0001469431368453,-95.7579572744654
6.006859264,1.000276278050245,-95.89127961066018
6.009145344,1.000388068365526,-96.02638585413877
6.011431936,1.000475013102419,-96.16294950844464
6.013718016,1.0005313930092345,-96.30056299544745
6.016004608,1.0005540302465767,-96.43874611732325
6.018290688,1.0005412762715618,-96.57701603681936
6.02057728,1.0004938906924579,-96.71490544942661
6.022863872,1.0004150635410844,-96.85185530852739
6.025149952,1.0003096467433836,-96.98747962387995
6.027436544,1.0001842602128561,-97.121430470137
6.029722624,1.0000469578731968,-97.25353959436697
6.032009216,0.9999064469917384,-97.38356199357848
6.034295296,0.9997716229602865,-97.51163250037786
6.036581888,0.9996510463692554,-97.63788203458103
6.03886848,0.9995524388876569,-97.76247940304805
6.04115456,0.9994820696506056,-97.88589818751389
6.043441152,0.999444313340655,-98.00854308042756
6.045727232,0.9994416995044881,-98.13089715837525
6.048013824,0.9994742930801099,-98.25348673698839
6.050299904,0.9995402933236995,-98.37680780298068
6.052586496,0.9996350917832441,-98.50131433345481
6.054872576,0.9997529196102528,-98.62736154069907
6.057159168,0.999886467774234,-98.75527377986573
6.05944576,1.0000267940528365,-98.8851805019141
6.06173184,1.000165362164011,-99.01711367467301
6.064018432,1.000293170354212,-99.15102686369902
6.066304512,1.0004022565677984,-99.28665180734616
6.068591104,1.0004855924234761,-99.42370699769499
6.070877184,1.0005379880310359,-99.56175419093302
6.073163776,1.0005560587476554,-99.70031918529129
6.075450368,1.0005385836379967,-99.83891190130788
6.077736448,1.00048673043235,-99.97700072665376
6.08002304,1.000403780636624,-100.11410006516465
6.08230912,1.0002950320586255,-100.24986872918039
6.084595712,1.0001671615514847,-100.38389947908794
6.086881792,1.000028518142894,-100.51601785969822
6.089168384,0.9998879329020929,-100.64610700242613
6.091454464,0.9997540678321089,-100.7741999351649
6.093741056,0.9996356699877711,-100.90051053681468
6.096027648,0.9995401430611539,-101.02521772738906
6.098313728,0.9994737404997657,-101.14878976322687
6.10060032,0.9994404714242479,-101.27165497446398
6.1028864,0.9994425387205517,-101.39429551190716
6.105172992,0.9994798978213474,-101.51718996130319
6.107459072,0.9995499808270286,-101.64092422810472
6.109745664,0.9996486631041258,-101.7658666881999
6.112032256,0.9997692566551089,-101.89248629723284
6.114318336,0.9999045046547341,-102.02088483825514
6.116604928,1.0000455810537345,-102.15137761483112
6.118891008,1.0001836345775728,-102.28387819513911
6.1211776,1.0003099264845794,-102.41832088771757
6.12346368,1.000416174862592,-102.55445012940972
6.125750272,1.000495969637491,-102.69197307276958
6.128036352,1.0005439778436525,-102.83042244011806
6.130322944,1.0005572596790917,-102.96932528519251
6.132609536,1.0005351909601032,-103.1081977994873
6.134895616,1.0004788322322988,-103.24650990103102
6.137182208,1.0003919353882282,-103.38373668271447
6.139468288,1.0002797411591904,-103.51959508327703
6.14175488,1.000149712541611,-103.65368292250929
6.14404096,1.000010078218934,-103.78580167735322
6.146327552,0.9998693217518612,-103.91588488833675
6.148614144,0.9997366933410885,-104.04401065778808
6.150900224,0.9996206034089705,-104.170365186048
6.153186816,0.9995283255790769,-104.29515824455517
6.155472896,0.9994659876079061,-104.41885439367456
6.157759488,0.9994371619620199,-104.54189272753318
6.160045568,0.9994439282107968,-104.66477389118083
6.16233216,0.9994857800553417,-104.78802191605847
6.16461824,0.9995602675669989,-104.91215028782372
6.166904832,0.9996624742701034,-105.03755166752269
6.169191424,0.9997859175761113,-105.16461605352536
6.171477504,0.9999227470304112,-105.29360477195445
6.173764096,1.0000643426645095,-105.42460096767473
6.176050176,1.0002016753910767,-105.55762991244913
6.178336768,1.0003261275197188,-105.69258936882052
6.180622848,1.0004295655715476,-105.82920714280557
6.18290944,1.000505564922267,-105.9671445470638
6.18519552,1.0005494422920391,-106.1059802596417
6.187482112,1.0005581508933836,-106.24516783348822
6.189768704,1.0005312512781181,-106.38427730656306
6.192054784,1.0004702629602291,-106.52270732673442
6.194341376,1.0003794771670116,-106.66011977550758
6.196627456,1.000264249983343,-106.79598506638627
6.198914048,1.000132170040387,-106.93007777874661
6.201200128,0.9999912724348475,-107.06221138909585
6.20348672,0.9998507720845211,-107.19226818059849
6.205773312,0.9997195599151989,-107.32042442369885
6.208059392,0.9996058065321172,-107.4467490745547
6.210345984,0.9995169919888836,-107.57162093881679
6.212632064,0.9994585853441708,-107.69544787701696
6.214918656,0.99943429418935,-107.81866712227438
6.217204736,0.9994459710320024,-107.94177325870066
6.219491328,0.9994924325046619,-108.06535228479896
6.221777408,0.9995710422560726,-108.18982006448263
6.224064,0.9996767477426133,-108.31565316611378
6.226350592,0.9998027903336268,-108.44321853364886
6.228636672,0.9999410591771805,-108.5726882079765
6.230923264,1.0000830270431667,-108.70418380824367
6.233209344,1.0002194520547898,-108.83772853192276
6.235495936,1.0003418962681432,-108.97314719529443
6.237782016,1.000442386728463,-109.11022541297856
6.240068608,1.0005145829971545,-109.24859185792234
6.2423552,1.0005540993803546,-109.38771363345232
6.24464128,1.0005581698463166,-109.52721417679963
6.246927872,1.0005266268882287,-109.66650642086579
6.249213952,1.0004614028610372,-109.80508130311163
6.251500544,1.0003666584892823,-109.94256372529352
6.253786624,1.0002484639678026,-110.07846740680965
6.256073216,1.0001143027882333,-110.2125346132769
6.258359296,0.9999725423643329,-110.34461653293683
6.260645888,0.9998323704678619,-110.4746692766955
6.26293248,0.9997026655720065,-110.60272364888029
6.26521856,0.9995915586416044,-110.72908718746358
6.267505152,0.9995061040063907,-110.85401870610342
6.269791232,0.9994518402957614,-110.97789397596758
6.272077824,0.9994321500987743,-111.10129824699864
6.274363904,0.9994485238650268,-111.22462658791345
6.276650496,0.9994994629975056,-111.34847372236521
6.278937088,0.9995822859654818,-111.47333330969587
6.281223168,0.9996912969658239,-111.59956809228238
6.28350976,0.9998197626727957,-111.72754263217178
6.28579584,0.9999595465613493,-111.85748894485971
6.288082432,1.0001016808921495,-111.98949196757665
6.290368512,1.0002372472659469,-112.12350974878355
6.292655104,1.0003574984406243,-112.2594034180534
6.294941184,1.0004548696019417,-112.39689261812295
6.297227776,1.0005233354341407,-112.53560845303356
6.299514368,1.0005582697215172,-112.67505832482652
6.301800448,1.0005576250691377,-112.81477167506581
6.30408704,1.0005212584947862,-112.95425885023415
6.30637312,1.0004519004591528,-113.09292272191071
6.308659712,1.0003534736245754,-113.23044089530975
6.310945792,1.0002323772979906,-113.36631612255006
6.313232384,1.0000963365391302,-113.50036960178348
6.315518464,0.999953801797184,-113.63239732292077
6.317805056,0.9998141208035826,-113.76237054107726
6.320091648,0.9996859651451117,-113.89041281847757
6.322377728,0.9995774676775155,-114.01671382379217
6.32466432,0.999495719830866,-114.14163106635539
6.3269504,0.9994456522019881,-114.26561920913622
6.329236992,0.9994306546873631,-114.38916695824472
6.331523072,0.9994515957439223,-114.512690378219
6.333809664,0.9995072161505786,-114.63683936566648
6.336096256,0.9995939135575146,-114.76200145668047
6.338382336,0.9997063591118058,-114.88864523565682
6.340668928,0.9998372121540153,-115.01705803983232
6.342955008,0.9999781160971332,-115.1474329015719
6.3452416,1.0001203657041382,-115.27985653830783
6.34752768,1.0002547287696755,-115.41437837633596
6.349814272,1.0003727649493428,-115.5506872303656
6.352100352,1.0004670828344955,-115.68856029058706
6.354386944,1.0005313629597605,-115.82759680072459
6.356673536,1.0005618431786492,-115.96733429506149
6.358959616,1.0005565708193245,-116.10724637662454
6.361246208,1.000515634090452,-116.24681614416437
6.363532288,1.0004418147152188,-116.38557894291812
6.36581888,1.0003397472861086,-116.52308364896939
6.36810496,1.0002159649355418,-116.65893402605938
6.370391552,1.0000781211534582,-116.79290213829465
6.372678144,0.9999351916131218,-116.92485591175398
6.374964224,0.9997959701543181,-117.05472254510673
6.377250816,0.9996695338714768,-117.18269635473992
6.379536896,0.9995639771405237,-117.30895110038536
6.381823488,0.9994857387852849,-117.4338858310542
6.384109568,0.9994400779656457,-117.55792999356696
6.38639616,0.9994295991447065,-117.68154425768078
6.38868224,0.9994553272291254,-117.80530173885886
6.390968832,0.9995154825091015,-117.92968110642244
6.393255424,0.9996060729397404,-118.05517733926841
6.395541504,0.9997216480297938,-118.18217340897205
6.397828096,0.9998546975075359,-118.31095142123235
6.400114176,0.9999967554254124,-118.4417912854659
6.402400768,1.0001388560262015,-118.5746909350633
6.404686848,1.0002720449873819,-118.70958279608891
6.40697344,1.0003876822910238,-118.84631036345004
6.409260032,1.0004786489245294,-118.98453660299408
6.411546112,1.000538990941447,-119.12385082367891
6.413832704,1.0005649400284762,-119.26379714117117
6.416118784,1.0005548234140806,-119.40392043696845
6.418405376,1.0005093766521493,-119.54359564079674
6.420691456,1.000431315755548,-119.6824138254126
6.422978048,1.0003257613661594,-119.81987516291287
6.425264128,1.0001991301170197,-119.95566156437349
6.42755072,1.0000598468097528,-120.08949120060906
6.429837312,0.9999164277103879,-120.22129419131146
6.432123392,0.9997780312084363,-120.35107312292232
6.434409984,0.9996535150126858,-120.47895102300993
6.436696064,0.9995507595777879,-120.60512408321472
6.438982656,0.9994763615359759,-120.73005223038393
6.441268736,0.9994349684358208,-120.85411833159543
6.443555328,0.9994293151236275,-120.97784675673168
6.44584192,0.9994597327530252,-121.10176271004967
6.448128,0.99952421999767,-121.226387096313
6.450414592,0.999618834381438,-121.35217615047883
6.452700672,0.9997374436570822,-121.47950689221155
6.454987264,0.9998724422603422,-121.60870092228643
6.457273344,1.000015538919308,-121.73993700105864
6.459559936,1.0001573953855194,-121.87322744844496
6.461846016,1.0002891345544025,-122.00850889231322
6.464132608,1.0004022665679955,-122.14562410743326
6.4664192,1.0004897604149192,-122.28416533838976
6.46870528,1.0005459397161904,-122.42373000207981
6.470991872,1.0005674168419787,-122.56384498972808
6.473277952,1.0005526703666658,-122.70410561519594
6.475564544,1.0005025243055996,-122.84384409662006
6.477850624,1.0004203133544736,-122.98263625903753
6.480137216,1.0003112490367017,-123.12006445160227
6.482423296,1.0001821703066256,-123.25575014760118
6.484709888,1.0000413955460772,-123.38945698189465
6.48699648,0.9998976294576153,-123.52109163489112
6.48928256,0.9997601418119573,-123.65072277964512
6.491569152,0.9996376565181082,-123.77847687580223
6.493855232,0.9995380010537682,-123.90456912372065
6.496141824,0.9994674576611521,-124.02942477801088
6.498427904,0.9994305030565431,-124.15355145920388
6.500714496,0.9994295570582015,-124.27734797811866
6.503001088,0.9994645545707149,-124.40144034596895
6.505287168,0.9995335113801215,-124.52626852193902
6.50757376,0.9996317815921318,-124.65232322853116
6.50985984,0.9997534068358371,-124.77999444219776
6.512146432,0.9998904650863027,-124.9095143055102
6.514432512,1.000034323022454,-125.04114065272148
6.516719104,1.0001757587637674,-125.17479366330576
6.519005184,1.0003059267719614,-125.31044149973896
6.521291776,1.0004165189988838,-125.44785933435035
6.523578368,1.0005004863349323,-125.5866902979759
6.525864448,1.0005525248552982,-125.72650333294953
6.52815104,1.000569270563911,-125.86683789053116
6.53043712,1.0005497522532214,-126.00712841374835
6.532723712,1.0004950345298844,-126.1469193168581
6.535009792,1.00040881015701,-126.28568277360749
6.537296384,1.0002964482284382,-126.4229624032465
6.539582976,1.000164964391901,-126.55848880856243
6.541869056,1.0000227812842726,-126.69207128924828
6.544155648,0.9998789361246856,-126.82356354128694
6.546441728,0.9997424150845609,-126.95299945275202
6.54872832,0.9996221885712363,-127.08057635501254
6.5510144,0.9995256867573026,-127.20659431418724
6.553300992,0.9994590618545328,-127.33140793419935
6.555587072,0.9994266437532637,-127.45546442540936
6.557873664,0.9994303899381446,-127.5793857420491
6.560160256,0.9994701118963564,-127.7035596640365
6.562446336,0.9995433512356737,-127.82860310074568
6.564732928,0.999645428879448,-127.95490814155066
6.567019008,0.9997698467133646,-128.08287528035535
6.5693056,0.9999087401740803,-128.21275955414046
6.57159168,1.00005315240824,-128.3447319820569
6.573878272,1.0001941633823621,-128.4787106101124
6.576164864,1.0003225538472182,-128.6147234039438
6.578450944,1.0004303777801553,-128.75243020942727
6.580737536,1.0005106870125828,-128.8914996785476
6.583023616,1.0005584520453852,-129.03152189050388
6.585310208,1.0005706342302416,-129.17193229437353
6.587596288,1.0005462121942494,-129.31231611773964
6.58988288,1.000487124629847,-129.4520941544637
6.59216896,1.0003968075385739,-129.5907697249816
6.594455552,1.0002811668363092,-129.7279398005446
6.596742144,1.0001473943651615,-129.8633064537006
6.599028224,1.0000040903910525,-129.99666686459761
6.601314816,0.9998602053582948,-130.12795575399576
6.603600896,0.9997250126028072,-130.25722575358867
6.605887488,0.9996070507633757,-130.38457459286613
6.608173568,0.9995138065981118,-130.5104763085164
6.61046016,0.9994511916002866,-130.6351810251526
6.612746752,0.9994232281911735,-130.75928411246366
6.615032832,0.9994317829955373,-130.8831833239128
6.617319424,0.9994761514092153,-131.0075289874944
6.619605504,0.9995537470524624,-131.13275326365084
6.621892096,0.9996593648596732,-131.25927442658573
6.624178176,0.9997865098576977,-131.387517797914
6.626464768,0.9999270658960235,-131.51771459314529
6.628750848,1.0000720460559307,-131.64995906677768
6.63103744,1.0002122985515487,-131.7843229497378
6.633324032,1.000338826355467,-131.92060051521713
6.635610112,1.0004438507020228,-132.0585634948208
6.637896704,1.0005205060721878,-132.1978652756332
6.640182784,1.0005637796221991,-132.33804532703974
6.642469376,1.000571260926429,-132.47856121397817
6.644755456,1.0005422092250298,-132.6189414375651
6.647042048,1.0004786110268447,-132.75867769913503
6.649328128,1.000384364811117,-132.89723316633788
6.65161472,1.0002655619224388,-133.03426859388392
6.653901312,1.0001295965364232,-133.16942413921333
6.656187392,0.9999852531793554,-133.30255299065487
6.658473984,0.9998415501608987,-133.4335883423795
6.660760064,0.9997076818130958,-133.5626182671706
6.663046656,0.9995921358499298,-133.68985085832693
6.665332736,0.9995023314418414,-133.8155129480339
6.667619328,0.9994438464772314,-133.9401642203857
6.66990592,0.9994205371185685,-134.06420067794176
6.672192,0.999433885763682,-134.1881474892488
6.674478592,0.999482871743211,-134.312587722851
6.676764672,0.9995646124619076,-134.43793213580142
6.679051264,0.999673833013789,-134.56468337908177
6.681337344,0.9998035824058846,-134.6931960758378
6.683623936,0.9999456715052722,-134.82365153221647
6.685910016,1.0000910169977428,-134.95622057911424
6.688196608,1.0002303508083674,-135.09085906695597
6.6904832,1.0003550272611021,-135.2274288488896
6.69276928,1.000456994907457,-135.36563000098744
6.695055872,1.0005297490474898,-135.50512319367485
6.697341952,1.0005687143294477,-135.64538356641677
6.699628544,1.000571400852387,-135.78599604485964
6.701914624,1.0005376322023816,-135.9263372938207
6.704201216,1.0004695099414087,-136.06599148593963
6.706487808,1.0003714222086397,-136.20442023880778
6.708773888,1.000249626281075,-136.34123665686258
6.71106048,1.0001115996075687,-136.47618574794802
6.71334656,0.9999663610949318,-136.60905144880076
6.715633152,0.9998230027589414,-136.73981055595783
6.717919232,0.9996906149380835,-136.86858002962936
6.720205824,0.9995776861184785,-136.99555567091056
6.722491904,0.9994912940822225,-137.12110873698026
6.724778496,0.9994371343616256,-137.245595953868
6.727065088,0.9994183555861823,-137.36956384004526
6.729351168,0.9994365132744146,-137.49351573495758
6.73163776,0.9994901628558206,-137.6180106266855
6.73392384,0.9995760648738358,-137.7435285353057
6.736210432,0.9996887290513892,-137.87044862924643
6.738496512,0.9998209893801262,-137.99919157829515
6.740783104,0.999964432616935,-138.12990733402816
6.743069696,1.000110009899156,-138.2627618960141
6.745355776,1.0002484489825323,-138.39768015313996
6.747642368,1.0003709077925866,-138.5344503321987
6.749928448,1.000469695406444,-138.6728663061443
6.75221504,1.000538484719524,-138.81251079432457
6.75450112,1.0005728879865288,-138.95288508564602
6.756787712,1.0005708701729796,-139.09348323174544
6.759073792,1.0005323835937476,-139.2338038433643
6.761360384,1.0004598475772617,-139.3732955521556
6.763646976,1.0003580611873375,-139.51154429311418
6.765933056,1.0002331637719821,-139.64814334096036
6.768219648,1.0000933079704997,-139.78283210005358
6.770505728,0.9999473572135141,-139.91539481522767
6.77279232,0.9998044586250429,-140.04589767939117
6.7750784,0.999673720263988,-140.1743950772431
6.777364992,0.9995634751496474,-140.30113022024221
6.779651584,0.9994807842518659,-140.4264441327515
6.781937664,0.9994308208125345,-140.55077765534213
6.784224256,0.9994168753712975,-140.67468968672884
6.786510336,0.9994396876910653,-140.79863639184322
6.788796928,0.999497902475157,-140.9231884301673
6.791083008,0.9995879453848683,-141.0487924491385
6.7933696,0.9997039464730801,-141.17592338756717
6.79565568,0.9998385690729542,-141.30485225596496
6.797942272,0.9999832555095634,-141.43581311778183
6.800228864,1.0001289136684108,-141.56892656297165
6.802514944,1.0002661485870044,-141.70405520750987
6.804801536,1.0003863770940264,-141.8410174875766
6.807087616,1.0004819417362292,-141.97960585796247
6.809374208,1.0005466373101266,-142.1193635346184
6.811660288,1.000576548813391,-142.25981303959963
6.81394688,1.0005696532975439,-142.40039410515126
6.81623296,1.0005264451847433,-142.5405936003644
6.818519552,1.0004496098594315,-142.67996319681797
6.820806144,1.000344062771557,-142.817985907252
6.823092224,1.0002163288728454,-142.95429620697044
6.825378816,1.0000748030806514,-143.0886673753326
6.827664896,0.9999281816756141,-143.22095043273836
6.829951488,0.9997858400135513,-143.3511150500852
6.832237568,0.9996569472774925,-143.47932553141865
6.83452416,0.9995495528927669,-143.60579068151927
6.836810752,0.9994705202453354,-143.73088021704046
6.839096832,0.9994250285529703,-143.85505697800778
6.841383424,0.9994157391562045,-143.97886363924658
6.843669504,0.999443378657266,-144.1027916790702
6.845956096,0.9995063224670657,-144.22734985523735
6.848242176,0.999600300777616,-144.35306587605177
6.850528768,0.9997195112559695,-144.48031080660002
6.852814848,0.9998564448062807,-144.60945339049195
6.85510144,1.0000022764316412,-144.74063441358354
6.857388032,1.000147770956164,-144.87393976398982
6.859674112,1.0002838336734061,-145.009277591171
6.861960704,1.000401574547088,-145.14646576921444
6.864246784,1.000493773545329,-145.28518708763127
6.866533376,1.0005543528253307,-145.42499347079476
6.868819456,1.000579654631096,-145.56544342757658
6.871106048,1.0005679331654076,-145.70598536593678
6.87339264,1.0005200261697549,-145.8460614597943
6.87567872,1.0004388796441275,-145.9852190646279
6.877965312,1.0003296581484824,-146.12303431152264
6.880251392,1.000199356606146,-146.25905837639328
6.882537984,1.0000560110960877,-146.39309375861268
6.884824064,0.999908973716778,-146.52503841863896
6.887110656,0.9997675062300709,-146.65483541218813
6.889396736,0.9996405280517237,-146.7827206085434
6.891683328,0.9995361434980651,-146.90885683103775
6.89396992,0.9994609840678786,-147.0337178306774
6.896256,0.9994198947768002,-147.15773802524646
6.898542592,0.9994153671898424,-147.28138233248353
6.900828672,0.9994478828215719,-147.40526941815963
6.903115264,0.9995152518102243,-147.52987216773755
6.905401344,0.9996132441593886,-147.65563209210316
