freq,mag,phase
6.0,1.000075541397562,-78.47631223526909
6.015180288,1.0000831630129026,-79.16000056882847
6.030360576,1.0000867852970277,-79.84388013337139
6.045540864,1.0000869622091073,-80.52785684800759
6.060721152,1.0000835729462145,-81.21195812039576
6.07590144,1.0000768026794697,-81.89604010821805
6.091081728,1.0000668739163052,-82.58017005023378
6.106262016,1.0000542693764607,-83.2642751268412
6.121442304,1.000039384364125,-83.9483156020609
6.136622592,1.0000230644490848,-84.63223410132511
6.15180288,1.000005696760845,-85.31611686410734
6.166983168,0.999988386396155,-85.99984452559025
6.182162944,0.9999714807194413,-86.68351111260802
6.197343232,0.9999558778449111,-87.36704163524858
6.21252352,0.9999423207623265,-88.05048065993071
6.227703808,0.9999311191123166,-88.73395811855643
6.242884096,0.9999229054289958,-89.41729601222622
6.258064384,0.9999180390399374,-90.1007257300085
6.273244672,0.9999167408389634,-90.78416421458486
6.28842496,0.9999189423132904,-91.46774103592783
6.303605248,0.9999246854604201,-92.15143412998681
6.318785536,0.9999336110796645,-92.83528179648529
6.333965824,0.9999455297982571,-93.51935656495087
6.349146112,0.9999598671968468,-94.20367745001626
6.3643264,0.9999758262312785,-94.88823741442184
6.379506688,0.9999931218142774,-95.57310026434608
6.394686976,1.0000106623735407,-96.25823602339693
6.409867264,1.0000278411065546,-96.94366893469117
6.425047552,1.0000441308773043,-97.62938191934832
6.44022784,1.0000586113599272,-98.31533719095927
6.455408128,1.000070657187697,-99.00149446566148
6.470588416,1.0000801320542654,-99.68789671597564
6.485768704,1.000086119357648,-100.37449079793058
6.500948992,1.0000886938419369,-101.06114491004048
6.51612928,1.0000877348703687,-101.74794513830878
6.531309056,1.000083112489469,-102.43474090838308
6.546489344,1.0000750794531539,-103.12157320357217
6.561669632,1.0000640843170783,-103.80831092660998
6.57684992,1.0000504417031433,-104.49499908854649
6.592030208,1.0000347202414148,-105.18160196741911
6.607210496,1.0000176864713408,-105.86803291704724
6.622390784,1.0000000290672446,-106.5543622954014
6.637571072,0.9999824824456423,-107.24055636028325
6.65275136,0.9999656455648381,-107.92658627188719
6.667931648,0.9999503971906326,-108.61249808119912
6.683111936,0.9999372333778788,-109.2982800175111
6.698292224,0.9999268145477739,-109.98398934033878
6.713472512,0.9999195227872103,-110.66967343442539
6.7286528,0.9999157543861906,-111.35534940576272
6.743833088,0.9999156027044764,-112.04102731609044
6.759013376,0.9999190256496858,-112.72677926288806
6.774193664,0.9999258999325452,-113.41269542752892
6.789373952,0.9999360251625442,-114.09867342709748
6.80455424,0.9999488989729389,-114.7849046681147
6.819734528,0.999964068641518,-115.47134048628457
6.834914816,0.9999809082263337,-116.15799782434267
6.850095104,0.999998601176844,-116.84489712339436
6.865275392,1.0000164967928389,-117.53208708820854
6.880455168,1.0000337285121925,-118.21949201681575
6.895635456,1.0000497772198895,-118.90717545652699
6.910815744,1.000063823809112,-119.5950307779934
6.925996032,1.0000752829581978,-120.28311638907766
6.94117632,1.0000837643742957,-120.9713293761356
6.956356608,1.0000889419496315,-121.65966234376555
6.971536896,1.0000902536834204,-122.34812856149087
6.986717184,1.000088086563564,-123.03656459891828
7.001897472,1.0000823046839364,-123.72500884666584
7.01707776,1.0000731266521763,-124.41342025066311
7.032258048,1.0000609787220383,-125.10168387594416
7.047438336,1.0000463760499925,-125.78988128404188
7.062618624,1.0000299405545485,-126.47787327363567
7.077798912,1.0000122923300512,-127.16572720923303
7.0929792,0.9999942377926491,-127.85338068531225
7.108159488,0.9999765240183827,-128.54086873486
7.123339776,0.9999597854389278,-129.22817250660952
7.138520064,0.9999448803217609,-129.91529443574655
7.153700352,0.9999322157032766,-130.60227372883008
7.16888064,0.9999226611994994,-131.28916209948093
7.184060928,0.9999163045090995,-131.97596762403367
7.199241216,0.9999135649871502,-132.66274964070635
7.214421504,0.9999144435440167,-133.34953895179464
7.22960128,0.9999191579162696,-134.0363737987867
7.244781568,0.9999272663294235,-134.72328682731992
7.259961856,0.9999385906194421,-135.4103166768347
7.275142144,0.9999525475517306,-136.09750784871053
7.290322432,0.9999685761127557,-136.78491138770667
7.30550272,0.9999860632261975,-137.4725342954684
7.320683008,1.0000042663584268,-138.16035198143115
7.335863296,1.0000223530609993,-138.84837136524973
7.351043584,1.0000397169676112,-139.53662256775527
7.366223872,1.0000554810197368,-140.22507112816828
7.38140416,1.0000690073017608,-140.91368110805715
7.396584448,1.0000798428605633,-141.60247288336421
7.411764736,1.0000874032727156,-142.2913547609222
7.426945024,1.000091501923093,-142.9803011552784
7.442125312,1.0000918138422044,-143.66930014469338
7.4573056,1.000088315746447,-144.35824953104458
7.472485888,1.0000813345042074,-145.0471407058895
7.487666176,1.0000710062678062,-145.73592901322894
7.502846464,1.0000577850402512,-146.42454284728703
7.518026752,1.0000422180848882,-147.11302567173965
7.53320704,1.0000249871196967,-147.8012864785902
7.548387328,1.0000067398471832,-148.48933074680266
7.563567616,0.9999883504277319,-149.17713853910837
7.578747392,0.9999704765892891,-149.86475251888263
7.59392768,0.9999539376985118,-150.55212201565212
7.609107968,0.9999393438210447,-151.23927313229166
7.624288256,0.9999274368298107,-151.92629599683292
7.639468544,0.9999186337734429,-152.61314988337034
7.654648832,0.9999132944249082,-153.29990739895598
7.66982912,0.9999117102193344,-153.98661411553186
7.685009408,0.9999138836859914,-154.67327233853192
7.700189696,0.9999197720978437,-155.35996998711175
7.715369984,0.9999291164487535,-156.04675448380038
7.730550272,0.9999415051108677,-156.73361950816468
7.74573056,0.9999564862305781,-157.4206335345615
7.760910848,0.9999734502017514,-158.107793720855
7.776091136,0.9999916192856525,-158.79513973707847
7.791271424,1.0000102436533285,-159.48266277224607
7.806451712,1.00002859363849,-160.17037902505618
7.821632,1.0000458274795927,-160.85827224975367
7.836812288,1.000061370720082,-161.5463308917254
7.851992576,1.0000743771875773,-162.23452103470856
7.867172864,1.0000844409752971,-162.92278955514232
7.882353152,1.000091014802657,-163.61114743866798
7.89753344,1.0000939558697346,-164.29950937789843
7.912713728,1.0000931012815757,-164.98785362316374
7.927893504,1.0000883430587681,-165.67612333067146
7.943073792,1.0000800929661295,-166.36428162545192
7.95825408,1.000068487186302,-167.0522691747034
7.973434368,1.0000541815198443,-167.74004670505644
7.988614656,1.0000376825037691,-168.42763294153502
8.003794944,1.0000195757599986,-169.11494689637806
8.018975232,1.0000009005555182,-169.8020025404951
8.03415552,0.9999820877536066,-170.48880849706407
8.049335808,0.9999641607429781,-171.175303955302
8.064516096,0.9999479188772054,-171.86158256832545
8.079696384,0.999933784954012,-172.547609993631
8.094876672,0.9999224335122302,-173.23343773342145
8.11005696,0.9999144896230195,-173.91909031340506
8.125237248,0.9999103009080936,-174.60465105786926
8.140417536,0.9999098772349846,-175.2900988255056
8.155597824,0.9999133126626362,-175.9755100318082
8.170778112,0.9999204551844888,-176.66089625643332
8.1859584,0.999931120020811,-177.34637455393906
8.201138688,0.9999447018912753,-178.03190341519087
8.216318976,0.9999607501489469,-178.71752482881897
8.231499264,0.9999785844646345,-179.4033288377738
8.246679552,0.9999973987435846,179.9107419191756
8.261859328,1.000016460633382,179.2246529176142
8.277039616,1.0000350250224532,178.53841735516036
8.292219904,1.0000522029955676,177.85203616614143
8.307400192,1.0000673201407853,177.1655108679948
8.32258048,1.0000797190802466,176.47891508804977
8.337760768,1.0000889851758743,175.79225239452668
8.352941056,1.000094535332666,175.1055805395795
8.368121344,1.0000963368424345,174.41894210333635
8.383301632,1.0000941743090135,173.73234997574602
8.39848192,1.0000882131399613,173.04593158469555
8.413662208,1.0000785764203322,172.35962295661773
8.428842496,1.000065790388026,171.6735444863933
8.444022784,1.0000504126158054,170.98773994621817
8.459203072,1.000032825127694,170.3021921778886
8.47438336,1.0000139975302929,169.61692626607154
8.489563648,0.9999947003573916,168.93196231544198
8.504743936,0.9999757111573784,168.24731022048798
8.519924224,0.9999576842420504,167.56297493352497
8.535104512,0.999941524583106,166.87892591107803
8.5502848,0.9999280803964636,166.19512127373926
8.565465088,0.9999175043673936,165.51157024577958
8.580645376,0.9999105328497075,164.82819303497394
8.595825664,0.9999074888465509,164.1449427276341
8.61100544,0.9999082508001582,163.46183942272467
8.62618624,0.9999131328879606,162.77877005907146
8.641366016,0.9999215354843073,162.09573164145948
8.656546816,0.9999335173953975,161.41264782090903
8.671726592,0.9999483669692161,160.7295038580798
8.686907392,0.9999653728961642,160.04627221150756
8.702087168,0.9999840838980176,159.3629233453517
8.717267968,1.0000036717961958,158.6794544836869
8.732447744,1.0000231605211136,157.99584267202084
8.747628544,1.0000418480111621,157.3121131389221
8.76280832,1.000058730733126,156.62825467847017
8.77798912,1.0000734698763996,155.94431724025802
8.793168896,1.000085334273048,155.26033347616237
8.808348672,1.000093563929231,154.57631557064622
8.823529472,1.000098056300817,153.89234806559972
8.838709248,1.0000985402040492,153.2084402868781
8.853890048,1.0000950495712955,152.52463778909268
8.869069824,1.0000876816840707,151.84103073231378
8.884250624,1.0000767217799071,151.15762311963385
8.8994304,1.0000625942462376,150.47447236139615
8.9146112,1.000045965204943,149.7916199405818
8.929790976,1.000027442287504,149.1090695236251
8.944971776,1.0000077874630942,148.42684903626633
8.960151552,0.9999880650052929,147.74498916419822
8.975332352,0.9999687808125122,147.06345593095796
8.990512128,0.9999508300215355,146.3822643659823
9.005692928,0.9999350532467798,145.70137344483842
9.020872704,0.9999220767006465,145.02078136523178
9.036053504,0.9999124498931545,144.34042274360075
9.05123328,0.9999065849823631,143.6602647688022
9.06641408,0.9999046888112606,142.98029229413697
9.081593856,0.9999068719309646,142.30043068972086
9.096774656,0.9999131070010105,141.62064103481623
9.111954432,0.9999230585472829,140.94086934931255
9.127135232,0.9999362825303835,140.26108091697515
9.142315008,0.9999524697873986,139.58123682791083
9.157494784,0.999970647914448,138.90129511299088
9.172675584,0.9999902255087955,138.2212800675238
9.18785536,1.0000103560941052,137.54115196069992
9.20303616,1.0000301453910174,136.86090745140993
9.218215936,1.0000488926350304,136.18053797387245
9.233396736,1.0000657259840489,135.50010061715585
9.248576512,1.000079834496523,134.8196089100331
9.263757312,1.000090916912273,134.13909627670208
9.278937088,1.0000982008459411,133.45859457935137
9.294117888,1.0001014450693977,132.77814930339363
9.309297664,1.0001005074338791,132.09781537607256
9.324478464,1.0000956764876139,131.4176539706813
9.33965824,1.000086758800742,130.73771567012932
9.35483904,1.0000743243717214,130.05800627146206
9.370018816,1.0000589210478277,129.37860368502456
9.385199616,1.0000410362223813,128.69950746578309
9.400379392,1.0000215980298126,128.02078036584297
9.415560192,1.0000012226675552,127.34240808066606
9.430739968,0.9999809196740063,126.6644207040381
9.445920768,0.9999613952559913,125.9867903148682
9.461100544,0.9999436406457435,125.30952582052682
9.476281344,0.9999282595950141,124.63259111430511
9.49146112,0.9999159673259758,123.95596051532624
9.506640896,0.9999072395567652,123.27957065114967
9.521821696,0.9999026532465263,122.60340996836929
9.537001472,0.999902046653662,121.92741429102612
9.552182272,0.9999056643023753,121.2515343129568
9.567362048,0.999913488267949,120.57572726198329
9.582542848,0.9999249063907127,119.89995092030378
9.597722624,0.9999396897098608,119.22414979154536
9.612903424,0.9999571762714656,118.54831912773533
9.6280832,0.9999764208835793,117.87240839484579
9.643264,0.9999969725444238,117.19637944467073
9.658443776,1.0000176198391746,116.52027220784288
9.673624576,1.000037820978148,115.84405956460913
9.688804352,1.000056570734336,115.16774426851296
9.703985152,1.000073050087611,114.49137709075671
9.719164928,1.000086687326352,113.81498742417408
9.734345728,1.000096709391592,113.13857342422926
9.749525504,1.0001028848250249,112.46222680399195
9.764706304,1.0001047738643223,111.78596754870524
9.77988608,1.000102510457813,111.1098485081771
9.79506688,1.0000959555409867,110.4339400858672
9.810246656,1.0000854529317535,109.75826087142386
9.825427456,1.0000715050887603,109.08287360274049
9.840607232,1.0000546344531833,108.40782633651057
9.855787008,1.0000355288863532,107.73311977515942
9.870967808,1.0000149671473975,107.05880118905549
9.886147584,0.9999938479455462,106.38485843833111
9.901328384,0.9999730961639274,105.71134005742422
9.91650816,0.9999535194864695,105.03817977469056
9.93168896,0.9999359117046256,104.36539917478025
9.946868736,0.999921057717488,103.69297090049136
9.962049536,0.9999096643358463,103.02083429412784
9.977229312,0.9999020945866347,102.34896007840979
9.992410112,0.9998986992355524,101.67729774348345
10.007589888,0.9998996688423886,101.00581478374811
10.022770688,0.9999049195321696,100.3344467620299
10.037950464,0.99991428484616,99.66312946238205
10.053131264,0.9999274104068526,98.99184789804225
10.06831104,0.9999437309616892,98.32052835209234
10.08349184,0.9999625694302039,97.64915712527389
10.098671616,0.9999830582963191,96.97771607702256
10.113852416,1.0000044635506617,96.30616148253633
10.129032192,1.000025771529973,95.63451789010534
10.144212992,1.0000462489568558,94.96278012702156
10.159392768,1.0000648349290684,94.29097568002722
10.174572544,1.000080935836384,93.61910326761361
10.189753344,1.0000937457615777,92.94721071409634
10.20493312,1.00010282692127,92.27535861718363
10.22011392,1.0001075832738988,91.60354999801464
10.235293696,1.0001080792168728,90.93188841504418
10.250474496,1.000104145717127,90.26038960107829
10.265654272,1.0000959304071753,89.58911471835951
10.280835072,1.0000837529140258,88.91810684862575
10.296014848,1.0000680496166197,88.24741845255443
10.311195648,1.0000496832015022,87.57708427589166
10.326375424,1.0000292762131504,86.90715307870913
10.341556224,1.0000077275075598,86.23758998095528
10.356736,0.9999858850935788,85.56845045253915
10.3719168,0.9999646383157175,84.89972426120613
10.387096576,0.9999449990451652,84.23139628823769
10.402277376,0.9999277087714263,83.56343640628299
10.417457152,0.9999135225934053,82.89581381401739
10.432637952,0.9999031368133244,82.22850293352336
10.447817728,0.9998967437655774,81.56144403978901
10.462998528,0.9998949526357326,80.89459206635154
10.478178304,0.9998975520231278,80.22788202584594
10.493359104,0.9999046178518383,79.5612841518463
10.50853888,0.9999157710737514,78.89472721146373
10.523718656,0.9999306952963108,78.22816719160494
10.538899456,0.9999485948707355,77.56159403211123
10.554079232,0.9999687634224127,76.89492667791966
10.569260032,0.9999904912214133,76.2281807625914
10.584439808,1.0000127767236866,75.56133253716939
10.599620608,1.000034631871004,74.89436627654011
10.614800384,1.0000552634639837,74.2273235173896
10.629981184,1.0000737234696246,73.56019106566788
10.64516096,1.0000892000385662,72.89301907280736
10.66034176,1.0001011568713696,72.2258400593717
10.675521536,1.0001089351834571,71.55868719837136
10.690702336,1.0001123208570117,70.89162512640095
10.705882112,1.0001110355951814,70.22471627572759
10.721062912,1.0001052509532988,69.55800072600398
10.736242688,1.000095175402967,68.89153394470976
10.751423488,1.0000811162303977,68.22535748977916
10.766603264,1.0000637562670842,67.55951672527324
10.781784064,1.0000438178263442,66.8940632947911
10.79696384,1.0000220174093133,66.22899274787338
10.81214464,0.9999993803956965,65.5643525810183
10.827324416,0.9999768339358305,64.9001337765134
10.842505216,0.9999553582889891,64.23632242355822
10.857684992,0.9999357669728761,63.572910615695704
10.872864768,0.9999189328857662,62.90987004075825
10.888045568,0.9999055269225041,62.24716101091343
10.903225344,0.9998962928783433,61.58473989376984
10.918406144,0.999891461818604,60.922563941944105
10.93358592,0.9998912403336796,60.26058191840291
10.94876672,0.9998957399824019,59.59868773967369
10.963946496,0.9999047359277339,58.9369072384954
10.979127296,0.9999178127862138,58.275143729498005
10.994307072,0.9999345931267304,57.613359250732415
11.009487872,0.9999542859125456,56.95151511876519
11.024667648,0.9999760340321993,56.28957147273621
11.039848448,0.9999988756949921,55.62751445633023
11.055028224,1.0000220834065756,54.9653496750238
11.070209024,1.0000444032382036,54.3030682975744
11.0853888,1.0000651572465695,53.64067005103186
11.1005696,1.0000832054352566,52.97821482206545
11.115749376,1.00009805870537,52.31570049137682
11.130930176,1.0001088343906164,51.653189278299756
11.146109952,1.0001152788023389,50.99072947642096
11.161290752,1.0001169707798414,50.32835468906975
11.176470528,1.0001137819890342,49.66615880016769
11.191651328,1.0001059479231227,49.004163330049664
11.206831104,1.0000938230592338,48.342421453708006
11.22201088,1.0000778052225745,47.681016132717836
11.23719168,1.000058618374952,47.01995097993178
11.252371456,1.0000369825308608,46.35928005783519
11.267552256,1.000013842118053,45.699027983841965
11.282732032,0.99999018589576,45.03919318473784
11.297912832,0.9999669413533377,44.379784234795565
11.313092608,0.999945145801502,43.72079090208529
11.328273408,0.9999257081063129,43.06219369878889
11.343453184,0.999909559151661,42.40394689498922
11.358633984,0.9998970821436651,41.74602743303719
11.37381376,0.9998892097954712,41.08834546205394
11.38899456,0.9998859760344665,40.430923336744456
11.404174336,0.9998877130665641,39.7736034999605
11.419355136,0.9998942047708869,39.11643196215484
11.434534912,0.9999052888718559,38.459275007975876
11.449715712,0.999920622005037,37.802123222852664
11.464895488,0.9999393494479087,37.144911091824596
11.480076288,0.9999607825288693,36.48760369119385
11.495256064,0.9999840662620354,35.830167454984334
11.510436864,1.0000081849926656,35.17262358445742
11.52561664,1.0000321517647746,34.514905169361505
11.54079744,1.0000549736480833,33.85706763996326
11.555977216,1.0000755554705534,33.19910393474066
11.571156992,1.0000931979682253,32.54106602743939
11.586337792,1.000107142478912,31.88297168647383
11.601517568,1.0001166832202406,31.224897468259424
11.616698368,1.000121378360152,30.566850762855054
11.631878144,1.000121148482573,29.908931320734048
11.647058944,1.0001158961555063,29.251177278317858
11.66223872,1.0001058573312347,28.593645667912842
11.67741952,1.0000915231951173,27.936399909165583
11.692599296,1.0000733762091352,27.27948954113638
11.707780096,1.0000521312439792,26.622945702311075
11.722959872,1.0000287951863769,25.966778946907297
11.738140672,1.00000427520714,25.311050013413283
11.753320448,0.9999795929997702,24.655738592976316
11.768501248,0.9999558047604585,24.000848886562743
11.783681024,0.9999338825188271,23.346371141615915
11.798861824,0.9999148830279241,22.69227586450732
11.8140416,0.9998993813800673,22.03850377117899
11.8292224,0.9998883231083806,21.38503747124666
11.844402176,0.9998819659725039,20.731796841549816
11.859582976,0.9998806395983537,20.07874585367145
11.874762752,0.9998845568346403,19.42581776764471
11.889943552,0.9998933272968791,18.77292299946653
11.905123328,0.9999067715487439,18.120052639747563
11.920303104,0.9999243406262265,17.46711973253259
11.935483904,0.9999452071540135,16.814102358826833
11.95066368,0.9999686274778171,16.160943049892488
11.96584448,0.9999934729735497,15.507636793934044
11.981024256,1.0000188813905408,14.854155387881214
11.996205056,1.000043529278802,14.200501448923934
12.011384832,1.0000666342605005,13.546704885311357
12.026565632,1.000087097088179,12.892754961267471
12.041745408,1.0001041409445004,12.238725524576468
12.056926208,1.000116866580718,11.584641682868867
12.072105984,1.0001248495603503,10.930552569259408
