freq,mag,phase
6.0,1.0,26.43022307364782
6.008,1.0,26.191174265216407
6.016,1.0,25.952032069121575
6.024,0.9999999999999998,25.712796705879015
6.032,1.0,25.473468397028586
6.04,1.0,25.23404736513662
6.048,0.9999998174747985,24.994533833798034
6.056,0.9999985475825479,24.754928027638567
6.064,0.9999973214464183,24.515230172316922
6.072,0.9999961382670393,24.27544049452693
6.08,0.9999949972518547,24.03555922199959
6.088,0.9999938976151437,23.795586583505123
6.096,0.9999928385780373,23.555522808855113
6.104,0.9999918193685368,23.31536812890441
6.112,0.99999083922153,23.075122775553144
6.12,0.9999898973788086,22.83478698174871
6.128,0.9999889930890838,22.594360981487576
6.136,0.9999881256079998,22.353845009817327
6.144,0.9999872941981492,22.11323930283832
6.152,0.9999864981290871,21.872544097705713
6.16,0.9999857366773435,21.631759632631006
6.168,0.9999850091264345,21.39088614688403
6.176,0.999984314766876,21.14992388079448
6.184,0.9999836528961928,20.90887307575367
6.192,0.9999830228189298,20.66773397421614
6.2,0.99998242384666,20.426506819701324
6.208,0.9999818552979953,20.18519185679502
6.216,0.9999813164985932,19.943789331150963
6.224,0.9999808067811644,19.702299489492358
6.232,0.9999803254854789,19.460722579613268
6.24,0.9999798719583725,19.21905885038004
6.248,0.9999794455537515,18.977308551732662
6.256,0.999979045632598,18.73547193468614
6.264,0.9999786715629726,18.49354925133172
6.272,0.9999783227200171,18.251540754838228
6.28,0.9999779984859576,18.00944669945318
6.288,0.9999776982501049,17.76726734050395
6.296,0.999977421408857,17.525002934398973
6.304,0.9999771673656963,17.282653738628692
6.312,0.9999769355311912,17.04022001176675
6.32,0.9999767253229933,16.797702013470744
6.328,0.9999765361658356,16.555100004483393
6.336,0.9999763674915282,16.31241424663331
6.344,0.9999762187389569,16.06964500283582
6.352,0.9999760893540756,15.826792537093786
6.36,0.9999759787899036,15.58385711449842
6.368,0.9999758865065167,15.340839001229883
6.376,0.9999758119710436,15.09773846455798
6.384,0.9999757546576554,14.854555772842751
6.392,0.9999757140475575,14.611291195534955
6.4,0.9999756896289821,14.367945003176725
6.408,0.9999756808971767,14.124517467401835
6.416,0.9999756873543931,13.881008860936147
6.424,0.9999757085098773,13.637419457598012
6.432,0.9999757438798554,13.393749532298466
6.44,0.9999757929875217,13.149999361041484
6.448,0.9999758553630246,12.906169220924209
6.456,0.9999759305434511,12.66225939013694
6.464,0.9999760180728127,12.418270147963357
6.472,0.9999761175020283,12.17420177478036
6.48,0.9999762283889071,11.930054552058166
6.4879999999999995,0.9999763502981308,11.685828762360096
6.496,0.9999764828012362,11.441524689342373
6.504,0.9999766254765947,11.197142617754071
6.5120000000000005,0.9999767779093923,10.952682833436555
6.52,0.999976939691609,10.7081456233235
6.5280000000000005,0.9999771104219974,10.46353127543997
6.536,0.9999772897060595,10.21884007890252
6.5440000000000005,0.9999774771560241,9.974072323918145
6.552,0.9999776723908238,9.729228301784095
6.5600000000000005,0.9999778750360677,9.484308304886836
6.568,0.9999780847240194,9.239312626701755
6.5760000000000005,0.9999783010935672,8.994241561791863
6.584,0.9999785237901999,8.749095405807468
6.592,0.9999787524659779,8.503874455484775
6.6,0.999978986779505,8.258579008645247
6.608,0.9999792263958986,8.013209364194358
6.616,0.999979470986761,7.767765822120569
6.624,0.9999797202301473,7.52224868349409
6.632,0.9999799738105347,7.276658250465602
6.64,0.999980231418791,7.030994826264991
6.648,0.9999804927521402,6.7852587151999
6.656,0.9999807575141301,6.539450222654299
6.664,0.9999810254145974,6.293569655086907
6.672,0.9999812961696332,6.0476173200296195
6.68,0.9999815695015464,5.801593526085791
6.688,0.9999818451388282,5.555498582928523
6.696,0.9999821228161145,5.309332801298804
6.704,0.9999824022741483,5.0630964930036075
6.712,0.9999826832597399,4.816789970913974
6.72,0.9999829655257311,4.570413548962878
6.728,0.99998324883095,4.323967542143187
6.736,0.9999835329401766,4.0774522665053965
6.744,0.9999838176240963,3.830868039155418
6.752,0.9999841026592611,3.584215178252181
6.76,0.9999843878280463,3.337494003005232
6.768,0.9999846729186074,3.0907048336722283
6.776,0.9999849577248359,2.843847991556354
6.784,0.9999852420463154,2.5969237990036653
6.792,0.9999855256882769,2.34993257940035
6.8,0.9999858084615522,2.102874657169917
6.808,0.9999860901825274,1.8557503577703045
6.816,0.9999863706730984,1.6085600076908941
6.824,0.9999866497606211,1.361303934449468
6.832,0.9999869272778643,1.113982466589075
6.84,0.9999872030629613,0.8665959336748046
6.848,0.9999874769593597,0.6191446662905071
6.856,0.9999877488157732,0.37162899603540817
6.864,0.9999880184861313,0.12404925552064976
6.872,0.9999882858295266,-0.12359422163425587
6.88,0.9999885507101656,-0.3713011008050347
6.888,0.9999888129973165,-0.6190710463663691
6.896,0.9999890725652558,-0.8669037216956774
6.904,0.9999893292932168,-1.1147987891770035
6.912,0.9999895830653356,-1.3627559102049458
6.92,0.9999898337705975,-1.6107747451887167
6.928,0.9999900813027828,-1.8588549535562602
6.936,0.9999903255604125,-2.106996193758457
6.944,0.9999905664466918,-2.3551981232734356
6.952,0.9999908038694569,-2.6034603986108826
6.96,0.9999910377411168,-2.851782675316608
6.968,0.9999912679785977,-3.100164607977011
6.976,0.9999914945032865,-3.348605850223746
6.984,0.9999917172409737,-3.597106054738423
6.992,0.9999919361217948,-3.845664873257423
7.0,0.9999921510801748,-4.09428195657678
7.008,0.9999923620547658,-4.342956954557163
7.016,0.9999925689883938,-4.591689516128944
7.024,0.9999927718279938,-4.840479289297294
7.032,0.9999929705245566,-5.089325921147484
7.04,0.999993165033064,-5.338229057850169
7.048,0.9999933553124322,-5.587188344666774
7.056,0.9999935413254508,-5.83620342595504
7.064,0.9999937230387222,-6.085273945174543
7.072,0.9999939004226014,-6.334399544892386
7.08,0.9999940734511333,-6.583579866788958
7.088,0.9999942421019956,-6.832814551663725
7.096,0.9999944063564329,-7.0821032394412216
7.104,0.9999945661991986,-7.331445569177001
7.112,0.9999947216184909,-7.580841179063743
7.12,0.999994872605893,-7.830289706437466
7.128,0.9999950191563088,-8.079790787783732
7.136,0.9999951612679032,-8.329344058744061
7.144,0.9999952989420374,-8.57894915412232
7.152,0.9999954321832079,-8.828605707891313
7.16,0.9999955609989845,-9.07831335319927
7.168,0.999995685399945,-9.328071722376697
7.176,0.9999958053996161,-9.577880446942979
7.184,0.9999959210144078,-9.82773915761342
7.192,0.9999960322635515,-10.077647484306063
7.2,0.999996139169038,-10.327605056148764
7.208,0.9999962417555539,-10.577611501486299
7.216,0.9999963400504183,-10.827666447887585
7.224,0.9999964340835198,-11.077769522152993
7.232,0.9999965238872555,-11.32792035032159
7.24,0.9999966094964657,-11.578118557678687
7.248,0.9999966909483736,-11.82836376876339
7.256,0.9999967682825203,-12.078655607376133
7.264,0.9999968415407022,-12.32899369658645
7.272,0.9999969107669128,-12.579377658740656
7.28,0.999996976007273,-12.829807115469816
7.288,0.999997037309976,-13.080281687697578
7.296,0.9999970947252192,-13.330800995648278
7.304,0.9999971483051471,-13.581364658854975
7.312,0.9999971981037857,-13.831972296167647
7.32,0.9999972441769831,-14.082623525761438
7.328,0.9999972865823468,-14.333317965145008
7.336,0.9999973253791832,-14.58405523116892
7.344,0.9999973606284356,-14.834834940034133
7.352,0.9999973923926253,-15.085656707300574
7.36,0.9999974207357876,-15.336520147895772
7.368,0.9999974457234158,-15.58742487612355
7.376,0.9999974674223973,-15.83837050567283
7.384,0.9999974859009558,-16.089356649626485
7.392,0.9999975012285925,-16.340382920470326
7.4,0.9999975134760253,-16.591448930101997
7.4079999999999995,0.9999975227151301,-16.84255428984014
7.416,0.999997529018884,-17.09369861043362
7.4239999999999995,0.999997532461305,-17.34488150207047
7.432,0.9999975331173967,-17.596102574387526
7.4399999999999995,0.9999975310630884,-17.847361436479467
7.448,0.9999975263751806,-18.09865769690859
7.4559999999999995,0.9999975191312859,-18.34999096371388
7.464,0.9999975094097747,-18.601360844421
7.4719999999999995,0.9999974972897197,-18.852766946051563
7.48,0.999997482850839,-19.104208875133136
7.4879999999999995,0.9999974661734429,-19.35568623770861
7.496,0.9999974473383783,-19.60719863934654
7.504,0.9999974264269759,-19.85874568515042
7.5120000000000005,0.9999974035209966,-20.110326979769233
7.52,0.999997378702578,-20.36194212740688
7.5280000000000005,0.999997352054183,-20.613590731832762
7.536,0.9999973236585481,-20.86527239639146
7.5440000000000005,0.9999972935986299,-21.116986724013305
7.552,0.9999972619575581,-21.36873331722422
7.5600000000000005,0.9999972288185824,-21.620511778156427
7.568,0.9999971942650245,-21.872321708558356
7.5760000000000005,0.9999971583802278,-22.124162709805518
7.584,0.999997121247511,-22.376034382910444
7.5920000000000005,0.9999970829501175,-22.62793632853375
7.6,0.9999970435711713,-22.8798681469941
7.6080000000000005,0.9999970031936285,-23.13182943827939
7.616,0.9999969619002317,-23.383819802056887
7.6240000000000006,0.9999969197734652,-23.635838837684396
7.632,0.9999968768955103,-23.88788614422054
7.640000000000001,0.9999968333482009,-24.13996132043605
7.648,0.9999967892129804,-24.39206396482411
7.656000000000001,0.9999967445708599,-24.644193675611724
7.664,0.9999966995023741,-24.896350050770135
7.672,0.9999966540875438,-25.148532688026265
7.68,0.9999966084058308,-25.40074118487341
7.688,0.9999965625361027,-25.652975138582388
7.696,0.9999965165565894,-25.90523414621261
7.704,0.9999964705448485,-26.157517804623215
7.712,0.9999964245777254,-26.40982571048419
7.72,0.9999963787313174,-26.66215746028759
7.728,0.9999963330809364,-26.914512650358716
7.736,0.9999962877010755,-27.16689087686743
7.744,0.9999962426653721,-27.419291735839366
7.752,0.9999961980465759,-27.67171482316728
7.76,0.9999961539165144,-27.924159734622407
7.768,0.9999961103460616,-28.176626065865758
7.776,0.9999960674051054,-28.429113412459596
7.784,0.9999960251625178,-28.681621369878805
7.792,0.9999959836861243,-28.934149533522305
7.8,0.9999959430426754,-29.186697498724584
7.808,0.9999959032978165,-29.439264860767125
7.816,0.9999958645160621,-29.691851214889905
7.824,0.9999958267607693,-29.94445615630295
7.832,0.9999957900941087,-30.197079280197855
7.84,0.9999957545770429,-30.449720181759307
7.848,0.9999957202693,-30.70237845617667
7.856,0.9999956872293498,-30.95505369865562
7.864,0.9999956555143832,-31.207745504429646
7.872,0.9999956251802876,-31.460453468771657
7.88,0.9999955962816272,-31.71317718700569
7.888,0.999995568871622,-31.965916254518437
7.896,0.9999955430021296,-32.21867026677088
7.904,0.9999955187236241,-32.47143881930994
7.912,0.9999954960851813,-32.72422150778014
7.92,0.9999954751344584,-32.97701792793518
7.928,0.9999954559176804,-33.22982767564965
7.936,0.9999954384796232,-33.48265034693056
7.944,0.9999954228635997,-33.735485537929115
7.952,0.9999954091114444,-33.98833284495227
7.96,0.999995397263503,-34.241191864474324
7.968,0.999995387358619,-34.49406219314868
7.976,0.9999953794341213,-34.74694342781936
7.984,0.9999953735258146,-34.999835165532645
7.992,0.99999536966797,-35.252737003548695
8.0,0.9999953678933156,-35.50564853935315
8.008,0.9999953682330278,-35.758569370668695
8.016,0.9999953707167252,-36.011499095466725
8.024000000000001,0.9999953753724605,-36.26443731197873
8.032,0.9999953822267158,-36.517383618707925
8.04,0.9999953913043976,-36.770337614440926
8.048,0.9999954026288317,-37.02329889825911
8.056000000000001,0.9999954162217604,-37.27626706955009
8.064,0.9999954321033393,-37.52924172801917
8.072,0.9999954502921369,-37.78222247370108
8.08,0.9999954708051308,-38.03520890697112
8.088000000000001,0.9999954936577097,-38.28820062855664
8.096,0.9999955188636726,-38.54119723954837
8.104,0.9999955464352295,-38.79419834141201
8.112,0.9999955763830042,-39.04720353599945
8.120000000000001,0.9999956087160365,-39.30021242555991
8.128,0.9999956434417852,-39.55322461275135
8.136,0.9999956805661314,-39.80623970065189
8.144,0.9999957200933854,-40.059257292770866
8.152000000000001,0.9999957620262897,-40.3122769930599
8.16,0.9999958063660256,-40.56529840592423
8.168,0.9999958531122214,-40.818321136233855
8.176,0.9999959022629579,-41.071344789334596
8.184000000000001,0.9999959538147782,-41.324368971059
8.192,0.9999960077626946,-41.577393287737436
8.2,0.9999960641001994,-41.83041734620926
8.208,0.9999961228192749,-42.08344075383357
8.216000000000001,0.9999961839104035,-42.3364631185
8.224,0.9999962473625787,-42.589484048639775
8.232,0.9999963131633187,-42.84250315323651
8.24,0.9999963812986762,-43.095520041836906
8.248000000000001,0.9999964517532545,-43.3485343245615
8.256,0.9999965245102191,-43.60154561211523
8.264,0.9999965995513125,-43.854553515798365
8.272,0.9999966768568691,-44.10755764751692
8.280000000000001,0.9999967564058315,-44.36055761979307
8.288,0.9999968381757648,-44.613553045775795
8.296,0.9999969221428738,-44.866543539251424
8.304,0.999997008282021,-45.11952871465388
8.312,0.9999970965667421,-45.37250818707494
8.32,0.9999971869692659,-45.625481572274815
8.328,0.9999972794605309,-45.87844848669204
8.336,0.999997374010207,-46.131408547454036
8.344,0.999997470586712,-46.38436137238684
8.352,0.9999975691572331,-46.637306580025616
8.36,0.9999976696877474,-46.89024378962422
8.368,0.9999977721430416,-47.14317262116562
8.376,0.9999978764867347,-47.396092695371365
8.384,0.9999979826812976,-47.64900363371189
8.392,0.9999980906880771,-47.90190505841581
8.4,0.9999982004673176,-48.154796592480196
8.408,0.9999983119781829,-48.407677859679694
8.416,0.9999984251787808,-48.66054848457667
8.424,0.9999985400261862,-48.913408092530254
8.432,0.9999986564764638,-49.16625630970636
8.44,0.9999987744846939,-49.41909276308655
8.448,0.9999988940049956,-49.671917080477996
8.456,0.9999990149905527,-49.92472889052214
8.464,0.9999991373936371,-50.17752782270462
8.472,0.9999992611656361,-50.430313507363806
8.48,0.9999993862570762,-50.68308557570044
8.488,0.9999995126176503,-50.9358436597862
8.496,0.9999996401962435,-51.188587392573176
8.504,0.9999997689409587,-51.44131640790232
8.512,0.9999998987991434,-51.6940303405127
8.52,1.0,-51.94672882604988
8.528,0.9999999999999999,-52.19941150107507
8.536,1.0,-52.45207800307329
8.544,1.0,-52.70472797046245
8.552,0.9999999999999998,-52.9573610426014
8.56,0.9999999999999999,-53.209976859798765
8.568,1.0,-53.46257506332095
8.576,1.0,-53.71515529540079
8.584,0.9999999999999999,-53.967717199245456
8.592,1.0,-54.22026041904497
8.6,0.9999999999999999,-54.47278459997988
8.608,1.0,-54.72528938822977
8.616,1.0,-54.97777443098064
8.624,1.0,-55.230239376433445
8.632,1.0,-55.482683873811204
8.64,1.0,-55.73510757336742
8.648,1.0,-55.987510126393154
8.656,1.0,-56.23989118522509
8.664,0.9999999999999999,-56.49225040325269
8.672,1.0,-56.744587434925975
8.68,1.0,-56.99690193576257
8.688,1.0,-57.249193562355416
8.696,1.0,-57.501461972379495
8.704,1.0,-57.75370682459953
8.712,1.0,-58.0059277788767
8.72,0.9999999999999999,-58.258124496175896
8.728,1.0000000000000002,-58.51029663857239
8.736,1.0,-58.762443869259116
8.744,1.0,-59.01456585255304
8.752,1.0,-59.26666225390227
8.76,1.0,-59.51873273989239
8.768,0.9999999999999999,-59.77077697825343
8.776,0.9999999999999999,-60.022794637865886
8.784,1.0,-60.274785388767754
8.792,1.0,-60.52674890216029
8.8,0.9999999999999999,-60.778684850414905
8.808,0.9999999999999998,-61.03059290707888
8.815999999999999,1.0,-61.28247274688189
8.824,0.9999999999999999,-61.53432404574201
8.832,0.9999999999999998,-61.78614648077154
8.84,1.0,-62.03793973028313
8.847999999999999,1.0,-62.28970347379572
8.856,0.9999999999999999,-62.54143739204026
8.864,0.9999999999999999,-62.79314116696535
8.872,0.9999999999999999,-63.04481448174295
8.879999999999999,1.0,-63.29645702077419
8.888,0.9999999999999999,-63.548068469694705
8.896,0.9999999999999999,-63.799648515380014
8.904,1.0,-64.05119684595103
8.911999999999999,0.9999999999999999,-64.30271315077945
8.92,1.0,-64.55419712049294
8.928,0.9999999999999998,-64.80564844698017
8.936,0.9999999999999999,-65.05706682339614
8.943999999999999,1.0,-65.30845194416713
8.952,1.0,-65.5598035049958
8.96,1.0,-65.81112120286585
8.968,1.0,-66.06240473604701
8.975999999999999,0.9999999999999999,-66.31365380409997
8.984,0.9999999999999998,-66.56486810788095
8.992,1.0,-66.81604734954618
9.0,0.9999999999999999,-67.0671912325567
9.008,0.9999999999999999,-67.31829946168297
9.016,0.9999999999999998,-67.56937174300911
9.024000000000001,1.0,-67.82040778393731
9.032,0.9999999999999998,-68.07140729319217
9.04,0.9999999999999999,-68.32236998082507
9.048,1.0,-68.57329555821842
9.056000000000001,0.9999999999999999,-68.82418373808942
9.064,0.9999999999999999,-69.07503423449444
9.072,1.0,-69.32584676283307
9.08,0.9999999999999999,-69.57662103985197
9.088000000000001,0.9999999999999999,-69.82735678364865
9.096,1.0,-70.0780537136754
9.104,0.9999999999999999,-70.32871155074317
9.112,1.0,-70.5793300170251
9.120000000000001,1.0,-70.82990883606024
9.128,0.9999999999999999,-71.08044773275702
9.136,0.9999999999999999,-71.33094643339706
9.144,1.0,-71.58140466563842
9.152000000000001,1.0,-71.83182215851895
9.16,0.9999999999999999,-72.08219864245979
9.168,0.9999999999999999,-72.33253384926871
9.176,0.9999999999999999,-72.5828275121433
9.184000000000001,0.9999999999999999,-72.83307936567394
9.192,0.9999999999999999,-73.0832891458472
9.2,0.9999999999999999,-73.33345659004893
9.208,1.0,-73.58358143706711
9.216000000000001,0.9999999999999999,-73.83366342709482
9.224,0.9999999999999999,-74.08370230173327
9.232,1.0,-74.33369780399461
9.24,0.9999999999999999,-74.58364967830482
9.248000000000001,1.0,-74.8335576705062
9.256,1.0,-75.08342152786025
9.264,0.9999999999999999,-75.33324099905046
9.272,1.0,-75.58301583418475
9.280000000000001,0.9999999999999999,-75.8327457847979
9.288,0.9999999999999999,-76.08243060385414
9.296,1.0,-76.33207004574983
9.304,0.9999999999999999,-76.58166386631557
9.312000000000001,1.0,-76.83121182281862
9.32,1.0,-77.08071367396514
9.328,1.0,-77.33016917990265
9.336,1.0,-77.57957810222219
9.344,0.9999999999999999,-77.82894020396007
9.352,1.0,-78.07825524960074
9.36,1.0,-78.32752300507802
9.368,0.9999999999999999,-78.57674323777785
9.376,1.0,-78.82591571653968
9.384,1.0,-79.07504021165892
9.392,0.9999999999999999,-79.3241164948883
9.4,0.9999999999999999,-79.57314433944025
9.408,1.0,-79.82212351998818
9.416,0.9999999999999999,-80.07105381266871
9.424,0.9999999999999999,-80.31993499508293
9.432,1.0,-80.56876684629854
9.44,1.0,-80.81754914685104
9.448,0.9999999999999999,-81.06628167874567
9.456,1.0,-81.31496422545865
9.464,1.0,-81.56359657193902
9.472,0.9999999999999999,-81.81217850460976
9.48,0.9999999999999999,-82.06070981136953
9.488,1.0,-82.30919028159379
9.496,1.0,-82.5576197061364
9.504,1.0,-82.80599787733068
9.512,1.0,-83.05432458899092
9.52,1.0,-83.3025996364134
9.528,1.0,-83.55082281637783
9.536,1.0,-83.79899392714817
9.544,1.0,-84.04711276847425
9.552,1.0,-84.29517914159224
9.56,1.0,-84.54319284922633
9.568,1.0,-84.79115369558923
9.576,1.0000000000000002,-85.03906148638353
9.584,1.0,-85.28691602880238
9.592,1.0000000000000002,-85.53471713153066
9.6,0.9999999999999999,-85.78246460474551
9.608,0.9999999999999999,-86.03015826011767
9.616,1.0,-86.27779791081173
9.624,1.0,-86.52538337148745
9.632,1.0,-86.77291445830005
9.64,0.9999999999999999,-87.02039098890131
9.648,0.9999999999999998,-87.26781278243993
9.656,1.0,-87.5151796595625
9.664,0.9999999999999998,-87.76249144241379
9.672,0.9999999999999999,-88.0097479546377
9.68,0.9999999999999999,-88.25694902137745
9.688,0.9999999999999999,-88.50409446927651
9.696,0.9999999999999999,-88.75118412647868
9.704,1.0,-88.998217822629
9.712,0.9999999999999999,-89.24519538887378
9.72,1.0,-89.4921166578614
9.728,0.9999999999999999,-89.73898146374232
9.736,1.0,-89.98578964216986
9.744,1.0,-90.23254103030004
9.752,1.0,-90.47923546679243
9.76,1.0,-90.72587279180989
9.768,1.0,-90.97245284701933
9.776,0.9999999999999999,-91.2189754755914
9.784,0.9999999999999999,-91.4654405222013
9.792,1.0,-91.71184783302826
