freq,mag,phase
6.0,1.0000802172020777,-69.81987535081885
6.002287104,1.0001171174093408,-69.94189996730339
6.004574208,1.0001467923722949,-70.06442070716557
6.006861312,1.0001671258837908,-70.187383194697
6.009147904,1.0001768056737037,-70.31053319284554
6.011435008,1.0001755123646454,-70.43379759313397
6.013722112,1.0001628592070695,-70.55697920960606
6.016009216,1.000140077536422,-70.6799213766496
6.01829632,1.0001081791449737,-70.80245746785444
6.020583424,1.0000695929935663,-70.92451573358078
6.022870016,1.0000265374067538,-71.04603551238903
6.02515712,0.9999818720265417,-71.16687752491092
6.027444224,0.9999383318535086,-71.28713161873986
6.029731328,0.999898661551701,-71.4067691356608
6.032018432,0.9998656474826523,-71.52589240795047
6.034305536,0.9998411881456575,-71.6446716544182
6.036592128,0.9998266709959853,-71.76314022053332
6.038879232,0.9998234908701176,-71.88155007582075
6.041166336,0.9998313542608588,-71.99993724934876
6.04345344,0.9998502602087898,-72.11858726658683
6.045740544,0.9998786904129466,-72.2375830576997
6.048027648,0.999914684734202,-72.35707882230344
6.05031424,0.9999562609711647,-72.47713573019185
6.052601344,1.0000006725749284,-72.59784314754842
6.054888448,1.0000451095003398,-72.7192599767127
6.057175552,1.0000866941898983,-72.8413218311686
6.059462656,1.000122915855191,-72.96391879521524
6.06174976,1.0001512292057124,-73.08700437138916
6.064036352,1.0001700120575046,-73.21045135082652
6.066323456,1.0001780114542314,-73.3341542895658
6.06861056,1.0001747237344123,-73.45789675129852
6.070897664,1.0001602810094452,-73.58153792545679
6.073184768,1.0001357717132235,-73.70490349754994
6.075471872,1.0001025986803196,-73.8278615802302
6.077758464,1.0000629141728987,-73.95028690346169
6.080045568,1.0000194090502061,-74.07216519513126
6.082332672,0.9999744086109328,-74.19340395496538
6.084619776,0.999931207111584,-74.31401223685748
6.08690688,0.9998923945983892,-74.43405358998493
6.089193984,0.9998604282503853,-74.5535685785006
6.091481088,0.9998375696499561,-74.67274217853138
6.09376768,0.9998248304391493,-74.79164992235572
6.096054784,0.9998233544816657,-74.9104854850052
6.098341888,0.9998332011165614,-75.02938958997726
6.100628992,0.999853709652928,-75.14851640268522
6.102916096,0.999883580895277,-75.26807045482315
6.1052032,0.9999208132074007,-75.38810649802852
6.107489792,0.9999632454382451,-75.50874475936445
6.109776896,1.0000081473016762,-75.63001765746148
6.112064,1.0000523913005301,-75.75203587423157
6.114351104,1.000093359581301,-75.87460356447023
6.116638208,1.000128560024894,-75.99780117785241
6.118925312,1.0001555279036756,-76.12142221238553
6.121211904,1.0001726550567247,-76.24541274909728
6.123499008,1.0001788728864245,-76.3695902896199
6.125786112,1.0001737165801803,-76.49381231605439
6.128073216,1.0001575875285584,-76.61784072673417
6.13036032,1.0001313001271463,-76.74165551007847
6.132647424,1.0000967635438143,-76.86499668937567
6.134934016,1.000056248845079,-76.9877768330687
6.13722112,1.0000120052100314,-77.11001671034074
6.139508224,0.999966961110301,-77.23159591624206
6.141795328,0.9999242021355057,-77.35256634076951
6.144082432,0.9998863821958884,-77.47296578078273
6.146369536,0.9998557067402107,-77.59286962026141
6.148656128,0.9998341348498772,-77.71245210594856
6.150943232,0.9998232204871332,-77.83179039405731
6.153230336,0.9998236583988782,-77.9510637696965
6.15551744,0.9998353474672805,-78.07040981258473
6.157804544,0.9998574015916257,-78.19005332307613
6.160091648,0.999888708148152,-78.31013968159604
6.162378752,0.9999272023337669,-78.4307127050398
6.164665344,0.9999701858788428,-78.55189512903075
6.166952448,1.000015315601943,-78.67373211293122
6.169239552,1.000059448553456,-78.79625731583437
6.171526656,1.0000998637823877,-78.91940188308592
6.17381376,1.0001339200482184,-79.04308977142317
6.176100864,1.0001595222771846,-79.16726109256471
6.178387456,1.0001750830732752,-79.29177402816967
6.18067456,1.000179436295029,-79.41638899765339
6.182961664,1.0001724045127343,-79.54105669047503
6.185248768,1.000154486972093,-79.6654938160543
6.187535872,1.0001267011379813,-79.78966200738276
6.189822976,1.0000910392937261,-79.9134014308212
6.192109568,1.0000493597635716,-80.03654751469608
6.194396672,1.000004743565371,-80.15912214746851
6.196683776,0.9999598056643711,-80.28103972344859
6.19897088,0.9999175349333673,-80.40234869746243
6.201257984,0.9998803911469725,-80.52311431084061
6.203545088,0.9998509305571963,-80.6433495158284
6.20583168,0.9998310433823551,-80.76332281696608
6.208118784,0.9998218115882597,-80.88304409620544
6.210405888,0.9998241343883428,-81.00274238023769
6.212692992,0.9998376531669608,-81.12258889509998
6.214980096,0.9998615658272205,-81.24268263002311
6.2172672,0.9998942399539665,-81.36325981450751
6.219553792,0.9999337236226811,-81.48434717073846
6.221840896,0.9999775528468773,-81.60607931760305
6.224128,1.0000228067385593,-81.72847159979843
6.226415104,1.0000665169441338,-81.85148863922866
6.228702208,1.0001062146254887,-81.9751851071155
6.230989312,1.0001391144652942,-82.09942817628396
6.233275904,1.0001633152572402,-82.22408577941137
6.235563008,1.000177108673398,-82.34901298381719
6.237850112,1.0001795919866907,-82.47409784620903
6.240137216,1.0001708035612449,-82.59915081010614
6.24242432,1.0001510525538055,-82.72400945276858
6.244711424,1.0001218188872134,-82.8485137485586
6.246998528,1.0000848397769315,-82.97259520196157
6.24928512,1.000042440687614,-83.09612837150065
6.251572224,0.9999973024184972,-83.21895090504638
6.253859328,0.9999526307229009,-83.34121865704742
6.256146432,0.9999107499945171,-83.46284835849933
6.258433536,0.9998745763319034,-83.58390641289151
6.26072064,0.9998464717624088,-83.70453285898925
6.263007232,0.9998281457885871,-83.82484225551543
6.265294336,0.9998209041425389,-83.944981431984
6.26758144,0.9998248547243936,-84.06510822062764
6.269868544,0.9998403157653153,-84.1853763387236
6.272155648,0.9998655740453966,-84.30594947777327
6.274442752,0.9998998580931167,-84.42698095479669
6.276729344,0.9999404276635563,-84.54856206974729
6.279016448,0.999984595653583,-84.67083494472601
6.281303552,1.000030074623108,-84.79370534945541
6.283590656,1.000073560618293,-84.9172636539406
6.28587776,1.0001124273523399,-85.0414402128783
6.288164864,1.000144227817941,-85.16615993790356
6.290451456,1.0001668398584478,-85.29128164586524
6.29273856,1.0001789491985051,-85.4166707893147
6.295025664,1.00017965568529,-85.54222542735954
6.297312768,1.0001689801675306,-85.6676328561073
6.299599872,1.0001474851678378,-85.79286573128648
6.301886976,1.0001168178108941,-85.91774167534066
6.304173568,1.0000786206718069,-86.0421074896918
6.306460672,1.000035462927112,-86.16591628674527
6.308747776,0.9999900047542717,-86.28908600703798
6.31103488,0.9999453967294931,-86.41161973925524
6.313321984,0.9999040286850585,-86.53356148999298
6.315609088,0.9998689616359792,-86.6549467004784
6.317896192,0.9998422941026508,-86.7758831803016
6.320182784,0.999825638891368,-86.89650354730557
6.322469888,0.9998201316864719,-87.0170266742344
6.324756992,0.9998260284671759,-87.13755349561919
6.327044096,0.9998431040605443,-87.2582073935745
6.3293312,0.999870287316972,-87.37929762753188
6.331618304,0.9999056340736172,-87.5007739458272
6.333904896,0.9999471717067658,-87.62286365026229
6.336192,0.9999918622528042,-87.74557224255292
6.338479104,1.0000373500677673,-87.86896028192781
6.340766208,1.000080422074467,-87.99304439685402
6.343053312,1.0001184831428696,-88.11770647424767
6.345340416,1.0001490226906606,-88.2428616347706
6.347627008,1.0001700993791265,-88.36845490127719
6.349914112,1.0001803751594773,-88.49426864414158
6.352201216,1.0001792811595829,-88.62016198325043
6.35448832,1.0001667064037008,-88.74598683076195
6.356775424,1.0001436058974311,-88.87154877827518
6.359062528,1.0001114091383838,-88.99675747137428
6.36134912,1.0000722142169949,-89.12142133265588
6.363636224,1.0000284744901464,-89.24549045036997
6.365923328,0.9999827501182459,-89.36893934029982
6.368210432,0.9999381916729989,-89.49175417215824
6.370497536,0.9998975901545497,-89.61392069121857
6.37278464,0.9998637810400016,-89.73558939295432
6.375071232,0.9998383136213134,-89.85685293358188
6.377358336,0.9998234068693901,-89.97780208009786
6.37964544,0.9998196290318222,-90.09867760204139
6.381932544,0.9998274562189413,-90.21959033497137
6.384219648,0.9998462562532504,-90.3407242976665
6.386506752,0.9998749349899975,-90.4621743093626
6.388793344,0.99991164743894,-90.5840900133635
6.391080448,0.999953978416433,-90.70663697168436
6.393367552,0.9999993249720117,-90.82984665104158
6.395654656,1.000044661288858,-90.95371442256703
6.39794176,1.0000872684209454,-91.07826453752347
6.400228864,1.000124489673247,-91.20335599804218
6.402515968,1.000153641656572,-91.32898293754141
6.40480256,1.0001731557189897,-91.45496729944436
6.407089664,1.0001816967453105,-91.58117842542826
6.409376768,1.00017866911632,-91.70745677785106
6.411663872,1.000164266117313,-91.83360534383043
6.413950976,1.000139578015188,-91.95948230468062
6.41623808,1.0001059747642937,-92.08495082625767
6.418524672,1.0000656663278058,-92.20991201975977
6.420811776,1.0000211424169518,-92.33426109666065
6.42309888,0.9999753902468079,-92.45794007028128
6.425385984,0.999931045022698,-92.5809837032341
6.427673088,0.9998913138946829,-92.70346110196006
6.429960192,0.9998584658369456,-92.82537751475984
6.432246784,0.9998346675542495,-92.94695414807133
6.434533888,0.99982128924819,-93.06822623450101
6.436820992,0.999819449012412,-93.18939317027714
6.439108096,0.9998290072748984,-93.31067967732733
6.4413952,0.9998496084563592,-93.4321291783747
6.443682304,0.9998798473300967,-93.55402278885947
6.445968896,0.9999176926850032,-93.67641926477893
6.448256,0.9999609463534354,-93.79938093115308
6.450543104,1.0000065238608475,-93.92302112341129
6.452830208,1.0000518395878262,-94.04736051364513
6.455117312,1.0000938798981154,-94.1723167373195
6.457404416,1.0001301311059874,-94.29788039620946
6.459691008,1.0001579162812095,-94.42392338723043
6.461978112,1.0001758913159253,-94.55030257145796
6.464265216,1.0001826584848588,-94.67689538258342
6.46655232,1.000177687858135,-94.80345065475211
6.468839424,1.0001616578302717,-94.92994995388446
6.471126528,1.0001352242161217,-95.05612949543605
6.473413632,1.0001003668474386,-95.18183118061673
6.475700224,1.0000590146399524,-95.30702718577814
6.477987328,1.0000138941097656,-95.43163071247649
6.480274432,0.9999680935408186,-95.55552744986038
6.482561536,0.9999242114143019,-95.67881228417222
6.48484864,0.9998852282434003,-95.80151574332194
6.487135744,0.9998534610641915,-95.92369490475846
6.489422336,0.9998310504167469,-96.04550001803116
6.49170944,0.9998195845109441,-96.16706153771968
6.493996544,0.9998195866375406,-96.28856884159741
6.496283648,0.9998309160999509,-96.41019445712443
6.498570752,0.9998532817700567,-96.53202273621127
6.500857856,0.9998849357544021,-96.65430057033755
6.503144448,0.9999239809353531,-96.77709893803436
6.505431552,0.9999678374301134,-96.90047389726823
6.507718656,1.0000138070634488,-97.02456323279199
6.51000576,1.0000590564545937,-97.1493247642745
6.512292864,1.000100473028097,-97.27470296906876
6.514579968,1.0001355914772445,-97.40066788574087
6.51686656,1.0001621835430177,-97.52708697422999
6.519153664,1.0001783088721463,-97.65383210173228
6.521440768,1.0001833291728066,-97.78075030762344
6.523727872,1.0001766428968277,-97.90766437035427
6.526014976,1.000158697681669,-98.0343947059585
6.52830208,1.000130712497075,-98.16084029362146
6.530588672,1.0000945635492644,-98.28678514786255
6.532875776,1.0000523024870953,-98.4122098660792
6.53516288,1.0000066600479174,-98.53698623799974
6.537449984,0.9999607245832687,-98.66112644193511
6.539737088,0.9999173162426074,-98.78458560769138
6.542024192,0.9998792067530453,-98.90752267002958
6.544310784,0.9998487125428344,-99.02992233819896
6.546597888,0.9998279756497314,-99.15198601786172
6.548884992,0.999818161121204,-99.2738361264416
6.551172096,0.9998199787590215,-99.39563969608018
6.5534592,0.9998332443648312,-99.51753847387182
6.555746304,0.9998571343508379,-99.63977772039703
6.558033408,0.9998902385574648,-99.7623752744085
6.56032,0.9999304387715602,-99.88555349442696
6.562607104,0.9999749919531633,-100.00936119176596
6.564894208,1.0000212938032131,-100.13379341254972
6.567181312,1.0000660927297518,-100.25898682561916
6.569468416,1.0001069687291915,-100.38474575364073
6.57175552,1.0001409415924913,-100.51108634315509
6.574042112,1.0001660106069188,-100.63788027527471
6.576329216,1.0001805791785554,-100.76498178140194
6.57861632,1.0001837066347223,-100.89219500406216
6.580903424,1.0001751274069564,-101.01940716107727
6.583190528,1.000155467286769,-101.14638136889542
6.585477632,1.0001259477619142,-101.27300983665208
6.587764224,1.0000885196864697,-101.3992233953416
6.590051328,1.0000453606285584,-101.52483057922493
6.592338432,0.999999443329514,-101.64978332176473
6.594625536,0.9999534398911664,-101.77408524897244
6.59691264,0.9999105359142333,-101.89774553568391
6.599199744,0.9998732856547017,-102.02083100473286
6.601486336,0.9998441956615283,-102.143489176903
6.60377344,0.9998249977698672,-102.26576880792737
6.606060544,0.9998169084441086,-102.38785204780437
6.608347648,0.9998206995758117,-102.50992471407308
6.610634752,0.9998356893740964,-102.63213701451704
6.612921856,0.999861283446741,-102.75464038509801
6.615208448,0.9998957914396785,-102.87764322537846
6.617495552,0.9999369735608026,-103.00118013983032
6.619782656,0.9999821912125426,-103.12533781674463
6.62206976,1.000028539590512,-103.25021064280124
6.624356864,1.000073203558925,-103.37572055771082
6.626643968,1.0001131525844313,-103.5018446778056
6.628931072,1.000145986621706,-103.62855200427788
6.631217664,1.0001696758149576,-103.75565638372218
6.633504768,1.000182449762557,-103.88306803367647
6.635791872,1.0001838658910667,-104.01055487958715
6.638078976,1.000173453263349,-104.13802670658494
6.64036608,1.0001520243334354,-104.26524251736414
6.642653184,1.0001210671492562,-104.3921063800199
6.644939776,1.0000823253537585,-104.51844524112067
6.64722688,1.0000383692640107,-104.64420469184256
6.649513984,0.9999921560764371,-104.76933449448333
6.651801088,0.999946197643342,-104.89379486715049
6.654088192,0.9999038657007101,-105.01761100765337
6.656375296,0.999867600339779,-105.14088286992327
6.658661888,0.9998398046992185,-105.2636852525407
6.660948992,0.9998222981679361,-105.38617380081364
6.663236096,0.9998159761711007,-105.50848644975393
6.6655232,0.9998215045645306,-105.63081082860833
6.667810304,0.9998384985027017,-105.75330376417698
6.670097408,0.9998655983063718,-105.87610834252256
6.672384,0.9999015243977449,-105.99942950934
6.674671104,0.9999435772201098,-106.1232835249508
6.676958208,0.9999893600434128,-106.24783237191212
6.679245312,1.000035851468463,-106.37302767502997
6.681532416,1.0000801183627985,-106.49890111315003
6.68381952,1.0001194151722674,-106.62537761353167
6.686106112,1.0001509052985484,-106.75239204725077
6.688393216,1.0001730383324272,-106.87983148383655
6.69068032,1.0001842751389782,-107.007495848751
6.692967424,1.00018365944077,-107.13525365472064
6.695254528,1.0001714326150288,-107.26288786905829
6.697541632,1.0001482390000553,-107.3903183992186
6.699828224,1.000115871106685,-107.51735787120224
6.702115328,1.0000760107301019,-107.64388214661606
6.704402432,1.000031312650975,-107.76975334336139
6.706689536,0.999984673145518,-107.89501214771802
6.70897664,0.999939016394273,-108.01960219710418
6.711263744,0.9998972906423318,-108.14352613781031
6.713550848,0.9998621437388249,-108.26696169351898
6.71583744,0.9998358197438652,-108.38989194118894
6.718124544,0.9998198037796512,-108.51257813865642
6.720411648,0.9998154016147964,-108.63509401130023
6.722698752,0.9998227855179495,-108.75765938175817
6.724985856,0.9998414034182319,-108.88039872068337
6.72727296,0.9998702728522083,-109.00350883657545
6.729559552,0.9999073387635165,-109.12709863573086
6.731846656,0.9999503870083027,-109.2512905751415
6.73413376,0.999996744805462,-109.37612006234906
6.736420864,1.0000431635520626,-109.50163201509683
6.738707968,1.0000870478658546,-109.62783441348785
6.740995072,1.0001252514201384,-109.7546282122173
6.743281664,1.000155788134449,-109.88195157838193
6.745568768,1.0001762846506395,-110.00962443568184
6.747855872,1.0001856425349842,-110.13756243560488
6.750142976,1.0001831998780764,-110.26552489770079
6.75243008,1.0001691618506368,-110.3933815438307
6.754717184,1.0001443550639384,-110.52097362881713
6.757003776,1.00011045655743,-110.64813947590433
6.75929088,1.0000695572407445,-110.77476357236065
6.761577984,1.0000241472972609,-110.90078230998242
6.763865088,0.9999773362506368,-111.02613887851004
6.766152192,0.999931905835266,-111.15082223251616
6.768439296,0.9998908561510341,-111.27489931852396
6.770725888,0.9998568967128609,-111.39836348608878
6.773012992,0.9998318265280975,-111.52149350842768
6.775300096,0.9998176208791685,-111.64430885113335
6.7775872,0.9998150832160643,-111.76700018803926
6.779874304,0.9998242714979114,-111.8897756308936
6.782161408,0.999844681316988,-112.0127317429283
6.784448512,0.9998750950380442,-112.13609843937735
6.786735104,0.9999134229881707,-112.2599521688199
6.789022208,0.9999573590540686,-112.384455192991
6.791309312,1.0000039749358554,-112.50959217683884
6.793596416,1.0000505128057682,-112.63541729147778
6.79588352,1.0000937197606965,-112.76189082065268
6.798170624,1.000131112051296,-112.88897452104818
6.800457216,1.0001602463688373,-113.01657654039764
6.80274432,1.0001791447426278,-113.14447947186483
6.805031424,1.0001867454533413,-113.27261082253173
6.807318528,1.0001824195234605,-113.40074255816856
6.809605632,1.000166586906887,-113.52877260751411
6.811892736,1.0001401811297745,-113.6564977713073
6.814179328,1.0001048803611783,-113.78378988517002
6.816466432,1.0000629119971496,-113.91049234718201
6.818753536,1.000016924762445,-114.03661359666738
6.82104064,0.9999700378218515,-114.16201202204427
6.823327744,0.9999248395170021,-114.28677864049011
6.825614848,0.9998845995428245,-114.41088080175102
6.82790144,0.9998516127245044,-114.53451610774373
6.830188544,0.9998282137039723,-114.65772670236014
6.832475648,0.9998157448380893,-114.78064961976106
6.834762752,0.99981502095069,-114.9035563466845
6.837049856,0.9998260670887869,-115.02647066502605
6.83933696,0.9998482391449165,-115.14964764169476
6.841623552,0.9998801173234824,-115.27324378984687
6.843910656,0.9999196969245627,-115.39736669027755
6.84619776,0.9999643566843384,-115.52210436922886
6.848484864,1.0000113988726849,-115.64748801227864
6.850771968,1.0000577183657682,-115.7736032869731
6.853059072,1.0001005128302662,-115.90036046197396
6.855345664,1.0001368033077846,-116.02769103942273
6.857632768,1.000164538152867,-116.15549029484595
6.859919872,1.0001817319125164,-116.28362561552112
6.862206976,1.0001876183062561,-116.41195495373691
6.86449408,1.000181462522182,-116.54025117522949
6.866781184,1.0001637901642555,-116.66839734046071
6.869068288,1.000135811669922,-116.79623483092632
6.87135488,1.0000990844583053,-116.92359354893233
6.873641984,1.0000561592646764,-117.05034939749363
6.875929088,1.0000096326589332,-117.17651129566234
6.878216192,0.9999625587986805,-117.30198108890399
6.880503296,0.9999179053532424,-117.42679200985678
6.8827904,0.999878493771261,-117.55095914557123
6.885076992,0.9998467144201161,-117.67463263696322
6.887364096,0.9998247971295688,-117.797934187708
6.8896512,0.9998140157824275,-117.9209811573291
6.891938304,0.9998151599422358,-118.04398882985616
6.894225408,0.9998281017240186,-118.16705595437112
6.896512512,0.9998519789630369,-118.2904537852527
6.898799104,0.9998853655065693,-118.41423195527385
6.901086208,0.9999260075543054,-118.53858150836977
6.903373312,0.9999714314805007,-118.66357587598426
6.905660416,1.0000187436741523,-118.78922341899676
6.90794752,1.0000649733419005,-118.91555401404041
6.910234624,1.000107042240775,-119.04250303323539
6.912521216,1.0001423769548023,-119.17006725961072
6.91480832,1.000168601293785,-119.29809752874581
