freq,mag,phase
6.0,0.9999134981181652,79.2818754977778
6.002287104,1.0001095757945604,79.10582284366598
6.004574208,1.0002983274501165,78.92699690922976
6.006861312,1.0004681314625075,78.74558233186161
6.009147904,1.0006084032487976,78.56193347794115
6.011435008,1.0007101793852557,78.37656775412329
6.013722112,1.000766979292054,78.19003411386494
6.016009216,1.0007753342246108,78.00306514326044
6.01829632,1.000734610073131,77.81633776602709
6.020583424,1.000647326188838,77.6305403788238
6.022870016,1.000519001489344,77.44635238117138
6.02515712,1.0003577034480986,77.26425321454786
6.027444224,1.0001735079624905,77.08467445076474
6.029731328,0.9999782438834435,76.90785762956594
6.032018432,0.9997838923708106,76.73390062613493
6.034305536,0.9996030993495151,76.5626882818126
6.036592128,0.9994470733223757,76.39393896176371
6.038879232,0.9993257552575313,76.22721615748587
6.041166336,0.9992469113439959,76.06198944160973
6.04345344,0.9992155563474798,75.89755880877105
6.045740544,0.9992335459834062,75.73326464393404
6.048027648,0.9992999669875596,75.5683686560665
6.05031424,0.9994105331141665,75.40221648661631
6.052601344,0.9995582852542807,75.23418589172701
6.054888448,0.9997339314261102,75.06383569987241
6.057175552,0.9999263980769506,74.89082968402754
6.059462656,1.0001234629270275,74.71499103210493
6.06174976,1.000312669317672,74.53639746862702
6.064036352,1.00048213232949,74.35520129669831
6.066323456,1.0006210699328266,74.17178043518123
6.06861056,1.000720761798513,73.98665828247388
6.070897664,1.000774936621133,73.80042034641637
6.073184768,1.0007800049901054,73.61377609164151
6.075471872,1.00073569572324,73.42742014119183
6.077758464,1.0006448163741826,73.24205831929032
6.080045568,1.000512988912199,73.05833139411477
6.082332672,1.0003485091316149,72.87676685013888
6.084619776,1.0001618890039252,72.69774575048578
6.08690688,0.9999647852993314,72.52152559260546
6.089193984,0.9997695059801367,72.34819009149531
6.091481088,0.999588565336151,72.17758096268071
6.09376768,0.9994334396025634,72.00945103348158
6.096054784,0.9993139171302539,71.84331730529178
6.098341888,0.9992375408309253,71.67864198627231
6.100628992,0.9992091597697509,71.51472630543822
6.102916096,0.9992306823380972,71.35089590233765
6.1052032,0.9993008046330039,71.18642670303781
6.107489792,0.999414908165559,71.02061437784
6.109776896,0.9995659982952977,70.8529080891717
6.112064,0.999744522361776,70.68281868048082
6.114351104,0.9999391882079091,70.51002744043083
6.116638208,1.0001376073043806,70.33441637421167
6.118925312,1.00032722587862,70.15597089626918
6.121211904,1.000496271622831,69.97496487502494
6.123499008,1.0006338811629667,69.79173061720657
6.125786112,1.0007314243512884,69.60682462804856
6.128073216,1.0007826616238473,69.42085942248255
6.13036032,1.0007844586155192,69.23448172418699
6.132647424,1.0007365137537376,69.04848142550308
6.134934016,1.0006419247753808,68.86351539268593
6.13722112,1.0005066682520098,68.68022121216215
6.139508224,1.000339024867856,68.4991372274898
6.141795328,1.0001498748749795,68.32065741352638
6.144082432,0.9999508936295517,68.1450131174513
6.146369536,0.9997546672134603,67.9722454845099
6.148656128,0.9995738461487591,67.80222346825722
6.150943232,0.9994195925408395,67.63466850074805
6.153230336,0.9993018268319505,67.4691060399728
6.15551744,0.9992280867493663,67.30492098510685
6.157804544,0.9992028335034133,67.14151616288734
6.160091648,0.999227900262792,66.9781000905024
6.162378752,0.9993018016871953,66.81399230178025
6.164665344,0.9994195671144016,66.64851877716426
6.166952448,0.9995741167779585,66.48106781071286
6.169239552,0.9997554107980283,66.31119777641618
6.171526656,0.9999522470162909,66.13859882436434
6.17381376,1.0001520042166654,65.96311194889421
6.176100864,1.0003421430045287,65.78484739840347
6.178387456,1.0005105602035287,65.60396474021238
6.18067456,1.0006467398434535,65.42090425203392
6.182961664,1.0007420994140457,65.23617193720227
6.185248768,1.0007904096031535,65.05040013079932
6.187535872,1.0007887690868638,64.8642903903436
6.189822976,1.0007371359818602,64.67859917832656
6.192109568,1.0006387700828039,64.49399087381889
6.194396672,1.0004999108124928,64.31113003676323
6.196683776,1.000329247536114,64.13049698198031
6.19897088,1.0001374463251385,63.952506300186556
6.201257984,0.9999367603202284,63.77739406932709
6.203545088,0.9997397460546694,63.60517323886057
6.20583168,0.999558924486272,63.43570974235568
6.208118784,0.9994057682839886,63.26868972164651
6.210405888,0.9992898782378526,63.10364087801405
6.212692992,0.9992186700070002,62.9399626272989
6.214980096,0.9991967921294073,62.77698504203389
6.2172672,0.9992254773627436,62.61395858069833
6.219553792,0.9993030907325586,62.45020039011627
6.221840896,0.9994246684233357,62.284993884134856
6.224128,0.9995824747642369,62.11775354665337
6.226415104,0.9997667052257628,61.94808175475642
6.228702208,0.9999656691111537,61.77560516790559
6.230989312,1.0001667075820775,61.60025564242942
6.233275904,1.0003571623466425,61.4220584764837
6.235563008,1.0005250792014164,61.24129699974998
6.237850112,1.000659808648924,61.05833708402885
6.240137216,1.0007526742162467,60.87374600453328
6.24242432,1.0007980398391922,60.68815825227941
6.244711424,1.0007928575993845,60.502266606233626
6.246998528,1.000737411115664,60.3168517270538
6.24928512,1.0006353724061237,60.13257193723126
6.251572224,1.0004928734618368,59.950082618595054
6.253859328,1.0003189683535338,59.76989201050526
6.256146432,1.0001247320138946,59.59236172720484
6.258433536,0.9999222393834576,59.417737725792634
6.26072064,0.9997244856275578,59.246041582352234
6.263007232,0.9995437608172603,59.07709247497263
6.265294336,0.9993916694523697,58.91056876240943
6.26758144,0.999277815084365,58.74601602416224
6.269868544,0.999209331495475,58.58276760416367
6.272155648,0.999190794937224,58.420190454366136
6.274442752,0.9992231975420208,58.257530631439636
6.276729344,0.9993047084629714,58.09406964092068
6.279016448,0.9994299846383323,57.92908180197287
6.281303552,0.9995912783660835,57.7620451446958
6.283590656,0.999778376387815,57.5924810655047
6.28587776,0.9999794132257442,57.420132131181994
6.288164864,1.000181707854985,57.24484283487106
6.290451456,1.0003724837206578,57.06671219497055
6.29273856,1.0005397583046385,56.886002547897135
6.295025664,1.0006728545901409,56.70311594372752
6.297312768,1.000763417647004,56.518614746318995
6.299599872,1.000805596440153,56.33315464454716
6.301886976,1.000796857311549,56.14748259343107
6.304173568,1.0007376073741707,55.9622991300968
6.306460672,1.0006315307612073,55.778307134172586
6.308747776,1.0004854711409765,55.59615266186786
6.31103488,1.000308396735912,55.41635325634332
6.313321984,1.0001116329846882,55.2392659577935
6.315609088,0.9999074946139168,55.065115802649586
6.317896192,0.9997089226835437,54.893892418728484
6.320182784,0.9995285012672515,54.72542890455391
6.322469888,0.9993775342263602,54.559378485858225
6.324756992,0.9992656936551803,54.39526825166201
6.327044096,0.999200146243702,54.23243503863194
6.3293312,0.9991849380290958,54.070215443380675
6.331618304,0.9992211654898187,53.907866113394896
6.333904896,0.9993065208658497,53.74463919033727
6.336192,0.9994356294668298,53.57987468295062
6.338479104,0.9996003005797164,53.41295428809541
6.340766208,0.9997902781184247,53.24349778762849
6.343053312,0.9999934475244723,53.07119294222099
6.345340416,1.0001969792519327,52.89592083671926
6.347627008,1.0003880099728817,52.71781233019378
6.349914112,1.0005545396138895,52.53711348355916
6.352201216,1.00068594020164,52.3542573595462
6.35448832,1.0007740182563136,52.169832629628104
6.356775424,1.0008130436239442,51.98450261956849
6.359062528,1.0008006226537853,51.798970115019
6.36134912,1.000737461194418,51.61397503829014
6.363636224,1.0006275947942243,51.43024763756923
6.365923328,1.0004777635099322,51.24840420505639
6.368210432,1.0002975844743776,51.06897802900594
6.370497536,1.0000982554749502,50.892298732367074
6.37278464,0.9998924382129842,50.71853806163815
6.375071232,0.9996930804112414,50.54776364518692
6.377358336,0.9995129612333583,50.379747247247614
6.37964544,0.9993632422596046,50.21414912293581
6.381932544,0.9992535287804815,50.050428820736855
6.384219648,0.9991908663159856,49.88798954430013
6.386506752,0.9991792005172156,49.72608658511521
6.388793344,0.9992192470904412,49.56401004173992
6.391080448,0.9993085412406297,49.40099983524309
6.393367552,0.9994414717740879,49.23635722739044
6.395654656,0.9996096703234049,49.06956186300357
6.39794176,0.999802532173443,48.900138856510786
6.400228864,1.0000077523964803,48.7278386076225
6.402515968,1.0002124683342746,48.55257249068547
6.40480256,1.0004037072357637,48.374436759270345
6.407089664,1.0005693542328469,48.1937182925863
6.409376768,1.0006990760794954,48.010858130851254
6.411663872,1.0007844826076422,47.82644986550788
6.413950976,1.0008202559925954,47.6411827747808
6.41623808,1.000804132264811,47.45574828771997
6.418524672,1.0007370027650213,47.27093232829224
6.420811776,1.0006231455272052,47.08742738874683
6.42309888,1.0004696891259082,46.905880545030755
6.425385984,1.0002862643490733,46.7267640644931
6.427673088,1.0000845031184085,46.55045572048156
6.429960192,0.9998770826314726,46.377101570991876
6.432246784,0.9996771172187673,46.2067355520935
6.434533888,0.9994972150016791,46.03913056079014
6.436820992,0.9993489040184994,45.87392367684485
6.439108096,0.9992414767133824,45.710577089319955
6.4413952,0.999181707978616,45.54845843896776
6.443682304,0.9991736671154808,45.38685100035563
6.445968896,0.999217600850317,45.22497373035472
6.448256,0.999311005928885,45.062135515111365
6.450543104,0.9994478530956604,44.89762196398646
6.452830208,0.9996194663662901,44.73086931791098
6.455117312,0.9998151214377611,44.56145518564998
6.457404416,1.0000224302272254,44.38911609911813
6.459691008,1.000228303509622,44.21378503138285
6.461978112,1.0004196603209294,44.03558125995957
6.464265216,1.0005844698660122,43.854815882175785
6.46655232,1.0007123225834447,43.671901422387045
6.468839424,1.0007950984244363,43.48747969727378
6.471126528,1.0008274986861183,43.30224147244125
6.473413632,1.0008075536233785,43.11689655346126
6.475700224,1.0007363413245522,42.93221051719885
6.477987328,1.0006185068005409,42.7489053441485
6.480274432,1.0004614109872838,42.56757882440408
6.482561536,1.0002747458830414,42.38876165777537
6.48484864,1.000070503945344,42.212784005333816
6.487135744,0.9998614950458478,42.03980163044869
6.489422336,0.999660846440037,41.869796821048
6.49170944,0.9994814353555994,41.70255914458185
6.493996544,0.9993344276076418,41.53771578352085
6.496283648,0.9992292543205039,41.37471015355401
6.498570752,0.9991726859583294,41.21287172205369
6.500857856,0.9991681926946852,41.05151062003562
6.503144448,0.9992161737552286,40.88983618947072
6.505431552,0.9993135618343281,40.72711540415394
6.507718656,0.9994542437640064,40.562662561836234
6.51000576,0.9996294271625729,40.39593077330145
6.512292864,0.9998279693000577,40.22646531079833
6.514579968,1.0000373308735944,40.05406859079764
6.51686656,1.0002442011832018,39.87862740057942
6.519153664,1.0004356675565158,39.70031684127275
6.521440768,1.0005995092757543,39.519427496729335
6.523727872,1.0007254175850655,39.33644798124035
6.526014976,1.0008055101979105,39.151982494568145
6.52830208,1.0008344955935826,38.96671308925459
6.530588672,1.0008106624545068,38.78140382409397
6.532875776,1.000735465474829,38.59682187909516
6.53516288,1.0006135122328939,38.41366312543102
6.537449984,1.0004526594021905,38.23256073446696
6.539737088,1.0002628257244823,38.05397773455147
6.542024192,1.0000561476974676,37.878316562688475
6.544310784,0.9998455503325036,37.70565692349854
6.546597888,0.9996443715436503,37.535995983716965
6.548884992,0.9994653255272054,37.36910116218996
6.551172096,0.999319888715396,37.20457694191139
6.5534592,0.9992171829828972,37.04186642306384
6.555746304,0.9991637037133674,36.88030531280578
6.558033408,0.9991628792777901,36.719118452066674
6.56032,0.9992149495769098,36.55758982527198
6.562607104,0.9993164083593881,36.39494315388159
6.564894208,0.9994611435079668,36.23050802720789
6.567181312,0.9996398134219965,36.06373447825907
6.569468416,0.9998411732966006,35.8942099646644
6.57175552,1.0000524663763795,35.72167363758529
6.574042112,1.0002603634620604,35.54610463150726
6.576329216,1.0004519212148604,35.36765003732213
6.57861632,1.0006146951860457,35.186614038423116
6.580903424,1.000738715012687,35.00351020199928
6.583190528,1.0008158857784364,34.8189476853135
6.585477632,1.0008414306771585,34.633641129487174
6.587764224,1.0008137242858366,34.44833651569336
6.590051328,1.0007343336199288,34.26382490840359
6.592338432,1.0006084328716263,34.08078101194125
6.594625536,1.0004437524800385,33.89984560882699
6.59691264,1.000250773228944,33.721489816045015
6.599199744,1.0000415509431393,33.54608448433286
6.601486336,0.9998294853120754,33.3737108014968
6.60377344,0.9996277832753074,33.204356189388086
6.606060544,0.9994493118317533,33.03778558714211
6.608347648,0.9993054830485671,32.87353112624404
6.610634752,0.9992052170368015,32.71106486342709
6.612921856,0.9991549203364328,32.549704655333656
6.615208448,0.9991579204602358,32.38871099733365
6.617495552,0.9992139910780624,32.22726608467633
6.619782656,0.9993197287704212,32.06465205333556
6.62206976,0.9994683355769091,31.900211323583115
6.624356864,0.9996504080533417,31.733359729606413
6.626643968,0.9998546391966155,31.563703356806876
6.628931072,1.000067973524164,31.391009517771167
6.631217664,1.0002768486755136,31.215260026701515
6.633504768,1.0004682819915616,31.03660669754663
6.635791872,1.0006300257160368,30.855404102018596
6.638078976,1.0007519560987892,30.67212886671229
6.64036608,1.0008260987672746,30.487434741851846
6.642653184,1.0008482033618522,30.30203692426579
6.644939776,1.0008164060246296,30.11670828237247
6.64722688,1.0007328569155425,29.932219921013676
6.649513984,1.000602819409443,29.74925498410862
6.651801088,1.0004343694819424,29.56846174056903
6.654088192,1.0002382702712669,29.39030995460687
6.656375296,1.0000266835735732,29.21511656442429
6.658661888,0.9998131342561881,29.043010062785243
6.660948992,0.9996110351245889,28.87392090275514
6.663236096,0.9994331451180758,28.707589726173467
6.6655232,0.9992908459428618,28.543592293906098
6.667810304,0.999193076139096,28.381364489931677
6.670097408,0.9991461379250782,28.220176127830314
6.672384,0.9991530059618768,28.05928294031693
6.674671104,0.99921321820613,27.897912108002064
6.676958208,0.9993231385207968,27.735302338190156
6.679245312,0.999475726583499,27.570779760828543
6.681532416,0.9996614011628396,27.40381561744251
6.68381952,0.9998682928871576,27.233988664407867
6.686106112,1.0000835437968745,27.06110137770625
6.688393216,1.0002935109611697,26.885117338017096
6.69068032,1.000484712812603,26.706234602103248
6.692967424,1.0006453503173283,26.524799808119088
6.695254528,1.0007650617515886,26.341316901107525
6.697541632,1.0008363535554516,26.156450410558783
6.699828224,1.0008547006033288,25.97093671726287
6.702115328,1.0008189556921447,25.785560018797852
6.704402432,1.0007311276670259,25.60104431057495
6.706689536,1.0005969850313818,25.418135278239106
6.70897664,1.0004248519370456,25.237442197643635
6.711263744,1.0002254905045258,25.059469135513083
6.713550848,1.000011483871703,24.884455495510068
6.71583744,0.9997964913818894,24.71257735984277
6.718124544,0.9995939318463225,24.543714422356395
6.720411648,0.999416833618672,24.377610696827666
6.722698752,0.9992761713042061,24.213840656115877
6.724985856,0.9991810386778106,24.051773880277665
6.72727296,0.9991374591021501,23.89071700308296
6.729559552,0.999148272352048,23.729903374185962
6.731846656,0.9992127085136244,23.56855222320676
6.73413376,0.9993268002991768,23.40588576118098
6.736420864,0.9994834178586465,23.241278532907824
6.738707968,0.9996724851270737,23.074131755485727
6.740995072,0.9998823439591854,22.904117652442086
6.743281664,1.000099508376023,22.73097641037319
6.745568768,1.0003102581765593,22.554727240425816
6.747855872,1.0005013438982981,22.375569677463016
6.750142976,1.0006606966657197,22.193863804438237
6.75243008,1.0007782782564671,22.010157995475332
6.754717184,1.0008465543416136,21.825082881955804
6.757003776,1.0008611730508592,21.63940017673385
6.75929088,1.0008212772997755,21.45391738249846
6.761577984,1.0007293017202008,21.269360247319312
6.763865088,1.0005909512997544,21.086483335702386
6.766152192,1.0004149439895753,20.905863343508283
6.768439296,1.000212482790071,20.727987498912672
6.770725888,0.999996151532211,20.553150533331742
6.773012992,0.9997797656620218,20.381443437325764
6.775300096,0.9995769478854183,20.212770622686044
6.7775872,0.9994004751854003,20.04687839809456
6.779874304,0.999261592741815,19.883268875813638
6.782161408,0.9991691497214011,19.721344404385484
6.784448512,0.999128972508103,19.560382513761304
6.786735104,0.9991437005175571,19.399615435723444
6.789022208,0.99921240701145,19.23821573748752
6.791309312,0.9993307749105201,19.075487720994673
6.793596416,0.9994913666767072,18.910725348471722
6.79588352,0.9996840800248042,18.743381469017113
6.798170624,0.999896602789729,18.573095575249408
6.800457216,1.0001155270862927,18.39967478323427
6.80274432,1.0003272083490582,18.223140000664646
6.805031424,1.0005180645174832,18.043655562807462
6.807318528,1.0006761827707775,17.861643554802207
6.809605632,1.0007914238344104,17.677659813409637
6.811892736,1.000856579728327,17.492352335296665
6.814179328,1.000867444639191,17.306471274578563
6.816466432,1.0008234707466026,17.12082604647001
6.818753536,1.0007270882962969,16.936211586090266
6.82104064,1.000584625601815,16.753301373162444
6.823327744,1.0004049104895583,16.572722063996597
6.825614848,1.0001992238745168,16.394946636898837
6.82790144,0.9999805381740657,16.2202227316193
6.830188544,0.9997628645175854,16.04867788692614
6.832475648,0.999559701740021,15.880175265322174
6.834762752,0.9993839990199096,15.714429631695317
6.837049856,0.9992469797037277,15.550947723585086
6.83933696,0.9991573064776101,15.389125544442253
6.841623552,0.9991206699033361,15.228219394288173
6.843910656,0.9991393723452613,15.067458527421536
6.84619776,0.9992123841349653,14.905987163761083
6.848484864,0.9993349968076731,14.74313103189057
6.850771968,0.9994996986524168,14.578176096549454
6.853059072,0.9996957711381731,14.410575380512933
6.855345664,0.9999110833262319,14.240012786211533
6.857632768,1.0001319143353382,14.06626142248829
6.859919872,1.000344285585467,13.889367397496592
6.862206976,1.0005348797623748,13.709550644862748
6.86449408,1.0006916803454546,13.527208617428661
6.866781184,1.0008045587395547,13.342879458117654
6.869068288,1.0008665567282518,13.157283688068686
6.87135488,1.0008736493012953,12.971206256146482
6.873641984,1.0008253805773504,12.785387921795454
6.875929088,1.0007246906784508,12.600653807574298
6.878216192,1.000577959194964,12.41769605352571
6.880503296,1.0003944700566554,12.237118467881187
6.8827904,1.0001856795072424,12.059382220012115
6.885076992,0.9999646952491643,11.884769891289165
6.887364096,0.9997456840681157,11.713326101466853
6.8896512,0.9995422798378006,11.54493906834659
6.891938304,0.9993675015027991,11.379321823347443
6.894225408,0.9992323867407455,11.215954928395286
6.896512512,0.9991454944810063,11.054171682086848
6.898799104,0.9991124103654255,10.893288086246711
6.901086208,0.9991351962219112,10.732470106941795
6.903373312,0.9992125439742829,10.570935065013636
6.905660416,0.9993395351992869,10.407877842589608
6.90794752,0.9995082180787905,10.242706287188625
6.910234624,0.9997077443064786,10.074845058726606
6.912521216,0.9999258465920046,9.903920278682078
6.91480832,1.000148391896178,9.729806772738206
6.917095424,1.000361530935607,9.552515265456014
6.919382528,1.0005517701339464,9.372313796459698
6.921669632,1.0007071110195007,9.189579610726513
6.923956736,1.0008176953778425,9.004914957349643
6.926243328,1.000876373462925,8.819027595563005
6.928530432,1.000879676038811,8.632658332809033
6.930817536,1.0008271101977522,8.446643349642622
6.93310464,1.0007221298207456,8.261741089728181
