freq,mag,phase
6.0,0.9994769840621479,-122.68554579778598
6.004266496,0.9994233199770927,-122.92266824606794
6.008533504,0.9994053688775867,-123.15933196074278
6.0128,0.9994233948766866,-123.39603793087852
6.017066496,0.9994762071670175,-123.6332412407398
6.021333504,0.9995609670189846,-123.87144183696358
6.0256,0.9996722787584856,-124.11105319944473
6.029866496,0.999803777857106,-124.35239586445472
6.034133504,0.999947539408989,-124.59571250919365
6.0384,1.0000949645345714,-124.84113774368873
6.042666496,1.0002373819187098,-125.08861496822753
6.046933504,1.0003660141271955,-125.33804167384353
6.0512,1.0004735077096905,-125.58911810632121
6.055466496,1.000553184010474,-125.84158396107394
6.059733504,1.0006003952153621,-126.09492908683755
6.064,1.0006122848310337,-126.34874850967756
6.068266496,1.0005882394408927,-126.60249701885645
6.072533504,1.0005294510620844,-126.85570724459419
6.0768,1.0004395372618786,-127.1079016266737
6.081066496,1.000323785601197,-127.35865641036399
6.085333504,1.0001891702686514,-127.60767727593945
6.0896,1.0000436148974903,-127.85475021573416
6.093866496,0.9998958305471792,-128.0997926267409
6.098133504,0.9997546353197364,-128.34281604364182
6.1024,0.9996284225371234,-128.58395660479724
6.106666496,0.9995248111528621,-128.82355110469496
6.110933504,0.9994499499486175,-129.061861478177
6.1152,0.9994084073675146,-129.29936753144338
6.119466496,0.999402456330772,-129.53658487036859
6.123733504,0.9994329350416354,-129.77398708420927
6.128,0.9994976033325378,-130.01207683034042
6.132266496,0.9995927848795034,-130.25131475080514
6.136533504,0.9997128299714265,-130.4921018492961
6.1408,0.999850577967262,-130.73473555955485
6.145066496,0.9999977013691708,-130.97941087761444
6.149333504,1.0001455645740034,-131.22617703624306
6.1536,1.0002853055886491,-131.4749677153308
6.157866496,1.0004085996084096,-131.72567920410702
6.162133504,1.0005079707924465,-131.97799687475316
6.1664,1.0005775774959764,-132.23146436761397
6.170666496,1.0006133205827212,-132.48575972945395
6.174933504,1.00061296981525,-132.74027534668292
6.1792,1.0005764215088941,-132.99461359028635
6.183466496,1.0005060085425521,-133.24815441767896
6.187733504,1.0004058354382348,-133.50058233076413
6.192,1.0002818601208672,-133.75142760543264
6.196266496,1.0001413457053066,-134.00043276640216
6.200533504,0.9999928425988687,-134.24744229457954
6.2048,0.9998451359782133,-134.49238613904964
6.209066496,0.9997070236617266,-134.73532304553947
6.213333504,0.9995867333657665,-134.97642386631705
6.2176,0.9994915499981255,-135.21607403614613
6.221866496,0.9994271404426865,-135.45460702871446
6.226133504,0.9993972350549749,-135.6924853547313
6.2304,0.9994039011834225,-135.93021081152943
6.234666496,0.9994465805548943,-136.1683057736197
6.238933504,0.9995228247365311,-136.40724269326964
6.2432,0.9996280084590734,-136.64749750600387
6.247466496,0.9997559395072466,-136.88943506934052
6.251733504,0.9998990592472666,-137.1332913468635
6.256,1.0000486462795781,-137.37923029624181
6.260266496,1.000195906514058,-137.62726526668052
6.264533504,1.0003320083693887,-137.8773655044503
6.2688,1.0004489375546568,-138.12922162107736
6.273066496,1.0005395573099105,-138.38257310917973
6.277333504,1.0005985325187197,-138.63699835203883
6.2816,1.0006223289779672,-138.89203785266534
6.285866496,1.000609463085562,-139.14716886955637
6.290133504,1.000560715130586,-139.4018862116274
6.2944,1.0004789498248634,-139.6557168899607
6.298666496,1.00036906747013,-139.90823207249457
6.302933504,1.0002375193123407,-140.15904695415773
6.3072,1.0000920903831865,-140.40793159391785
6.311466496,0.9999416393939728,-140.6547456627673
6.315733504,0.9997949437648356,-140.8995050477137
6.32,0.999660953545574,-141.14225954048635
6.324266496,0.9995474403457352,-141.38334954803753
6.328533504,0.9994614231683643,-141.62299946943457
6.3328,0.9994079731376027,-141.86167950629348
6.337066496,0.999390252231344,-142.0998892670391
6.341333504,0.9994094012180524,-142.3381243550837
6.3456,0.999464310014894,-142.57689018452587
6.349866496,0.9995516612756518,-142.81666768565017
6.354133504,0.9996663276984437,-143.05792481605383
6.3584,0.9998014535915641,-143.30091788894254
6.362666496,0.9999489913951107,-143.5459279581004
6.366933504,1.0001000453281355,-143.7930859715458
6.3712,1.0002457428157978,-144.04232413575716
6.375466496,1.0003773497165023,-144.2935481229882
6.379733504,1.000486954492748,-144.54651044044346
6.384,1.0005680422208933,-144.80079350400982
6.388266496,1.0006157898925854,-145.05602235979833
6.392533504,1.000627271919029,-145.31166659641156
6.3968,1.0006018964871484,-145.56724353526155
6.401066496,1.0005410164303261,-145.8222702746697
6.405333504,1.0004482484628368,-146.076190956535
6.4096,1.0003292332891667,-146.3286690405317
6.413866496,1.000190923124893,-146.57931311183077
6.418133504,1.0000415797189293,-146.82798582499933
6.4224,0.9998900275773762,-147.07450660200195
6.426666496,0.9997454386905309,-147.31901701505794
6.430933504,0.999616485584217,-147.56156492744154
6.4352,0.9995107041788175,-147.80248722410067
6.439466496,0.9994345019932254,-148.04216224660732
6.443733504,0.9993924677531542,-148.28096615392028
6.448,0.9993871980548599,-148.51946138382561
6.452266496,0.9994189976288863,-148.75815037103283
6.456533504,0.9994858670862314,-148.9975702021402
6.4608,0.9995839676477065,-149.23815162585848
6.465066496,0.9997074968547885,-149.4803373282625
6.469333504,0.9998489186124818,-149.7243861673166
6.4736,0.9999999070800271,-149.9704800395555
6.477866496,1.0001515616218775,-150.21874881513975
6.482133504,1.0002946058520366,-150.4691175390448
6.4864,1.0004206719876143,-150.72138434165268
6.490666496,1.0005221544949732,-150.97529263255768
6.494933504,1.0005930526697508,-151.2304114603379
6.4992,1.000629085132512,-151.4862926813176
6.503466496,1.0006280472116726,-151.74242950880492
6.507733504,1.000590068600829,-151.99833952456217
6.512,1.0005173191856296,-152.25344043811955
6.516266496,1.0004140824683834,-152.50736028114784
6.520533504,1.000286507562299,-152.75966561635644
6.5248,1.000142308474947,-153.0100635524433
6.529066496,0.9999898233938711,-153.258361483694
6.533333504,0.9998384042829608,-153.50456419921144
6.5376,0.9996969172764976,-153.7487007777229
6.541866496,0.9995738799197685,-153.9909429758739
6.546133504,0.9994766430519736,-154.2316937007659
6.5504,0.9994109818142429,-154.47129108930972
6.554666496,0.9993809901811124,-154.71021231545583
6.558933504,0.9993883760509814,-154.94899876364974
6.5632,0.9994326402546297,-155.1881255039208
6.567466496,0.9995113454493206,-155.4281561696145
6.571733504,0.9996196800601033,-155.6695061509474
6.576,0.9997512956946423,-155.91258247176967
6.580266496,0.999898243403541,-156.15758250858164
6.584533504,1.0000518391595121,-156.40475648989164
6.5888,1.0002028942801255,-156.6540790552872
6.593066496,1.0003424067249793,-156.9054479475668
6.597333504,1.000462018096372,-157.1586791406488
6.6016,1.0005545741538995,-157.41337990104952
6.605866496,1.0006145888066882,-157.66918535642432
6.610133504,1.0006384648701783,-157.92558994238564
6.6144,1.0006247457896909,-158.18210263881954
6.618666496,1.0005741795248415,-158.4381517187752
6.622933504,1.0004898812479588,-158.69326914848858
6.6272,1.0003766670235368,-158.94699307270628
6.631466496,1.0002413735226088,-159.19899102472482
6.635733504,1.0000920733558873,-159.4490102035851
6.64,0.9999375559172512,-159.69690252836327
6.644266496,0.9997870334235452,-159.94263689360605
6.648533504,0.9996496944703953,-160.18632685577114
6.6528,0.9995335710875707,-160.42825930720875
6.657066496,0.9994456977029402,-160.66875679817238
6.661333504,0.9993911741978199,-160.90826306038394
6.6656,0.999373540109261,-161.14726878084707
6.669866496,0.9993936808269586,-161.38628836663378
6.674133504,0.999450504744273,-161.62581273745332
6.6784,0.9995406156525988,-161.86642245197353
6.682666496,0.9996586974601149,-162.10851683580816
6.686933504,0.999797690356722,-162.3524194069479
6.6912,0.9999492611967534,-162.59840339687912
6.695466496,1.000104418908227,-162.84652961196193
6.699733504,1.0002538834656263,-163.09676252301026
6.704,1.0003888027511205,-163.34907649084573
6.708266496,1.000501022483638,-163.60311301041142
6.712533504,1.0005838904542985,-163.85854742441836
6.7168,1.0006325088649548,-164.11492590361473
6.721066496,1.0006438234248218,-164.37169729642133
6.725333504,1.000617300972535,-164.62838288557677
6.7296,1.000554325072661,-164.88447116712769
6.733866496,1.0004587372987992,-165.13945531050257
6.738133504,1.000336206484541,-165.39290145125264
6.7424,1.000193905325976,-165.6444842204611
6.746666496,1.0000403998604952,-165.89397822351944
6.750933504,0.999884772056931,-166.14131291751096
6.7552,0.9997364875705262,-166.38653087677523
6.759466496,0.9996041520402853,-166.6297287823538
6.763733504,0.999495736885785,-166.8712491314032
6.768,0.9994179371232071,-167.11146657326157
6.772266496,0.9993751918745751,-167.35083982082224
6.776533504,0.9993702274282669,-167.58987621449154
6.7808,0.9994032605698324,-167.8291070259749
6.785066496,0.9994724346679017,-168.0690736980586
6.789333504,0.9995735838161262,-168.31021137264506
6.7936,0.9997006477329452,-168.55299898042003
6.797866496,0.9998461364405269,-168.79769153210196
6.802133504,1.0000014149948633,-169.04450103193835
6.8064,1.0001571792739266,-169.29352263729544
6.810666496,1.0003041090673743,-169.5446885144409
6.814933504,1.00043335637445,-169.79778517541243
6.8192,1.0005373775141524,-170.05255738449094
6.823466496,1.0006098977047142,-170.30854975089423
6.827733504,1.0006465273093677,-170.5653228167011
6.832,1.0006449814534373,-170.82237380036077
6.836266496,1.0006056156711622,-171.07912661506137
6.840533504,1.000530426290231,-171.3350888800485
6.8448,1.0004240575318233,-171.58977583088014
6.849066496,1.000292688777925,-171.84279239727897
6.853333504,1.0001442697163776,-172.09382412941835
6.8576,0.999987487159194,-172.3427310258221
6.861866496,0.9998318591978586,-172.58942990023067
6.866133504,0.9996865813398776,-172.83399224603843
6.8704,0.9995604101697564,-173.07667123555893
6.874666496,0.9994606357498769,-173.31776315142685
6.878933504,0.9993935237245059,-173.55763656303145
6.8832,0.9993630760911727,-173.7968318738435
6.887466496,0.999371092485163,-174.03586730028718
6.891733504,0.999416952122917,-174.27529301371698
6.896,0.9994982889356142,-174.515619908792
6.900266496,0.9996099268843572,-174.75730538319723
6.904533504,0.9997454445347334,-175.00073896172208
6.9088,0.9998967363634019,-175.24615883440768
6.913066496,1.0000546021825225,-175.49379369546867
6.917333504,1.0002098894234375,-175.74362653254576
6.9216,1.0003532401438746,-175.99557361786904
6.925866496,1.0004759427777143,-176.24939510013104
6.930133504,1.0005708888759215,-176.504745869152
6.9344,1.0006322668875172,-176.76119688032512
6.938666496,1.0006565716377251,-177.01826516271439
6.942933504,1.0006420514772698,-177.27540110531572
6.9472,1.0005897053200572,-177.53205143551875
6.951466496,1.0005026238953347,-177.78774529192614
6.955733504,1.0003859517029312,-178.04201110375791
6.96,1.0002465466322157,-178.294459021877
6.964266496,1.000092857268332,-178.54486461647772
6.968533504,0.9999338995449442,-178.79304987704356
6.9728,0.9997792335893592,-179.03903209104212
6.977066496,0.9996380457822711,-179.28293212869755
6.981333504,0.9995188312651119,-179.5249729161823
6.9856,0.9994286530622061,-179.76554006048892
6.989866496,0.9993730226744018,179.99491694947028
6.994133504,0.9993550862920607,179.75591298007802
6.9984,0.9993762393432165,179.51688612231058
7.002666496,0.9994349974239017,179.27730760772909
7.006933504,0.9995280121286837,179.03663194293804
7.0112,0.9996497147836113,178.79447332341928
7.015466496,0.9997929852522844,178.55044342301056
7.019733504,0.999948963486493,178.3042874750707
7.024,1.0001087011189327,178.05593036789392
7.028266496,1.0002623985075263,177.80535525921218
7.032533504,1.0004010856127121,177.55271660114133
7.0368,1.000516353627641,177.29829397535894
7.041066496,1.0006013932304734,177.04247534849705
7.045333504,1.000651067455757,176.78569900640943
7.0496,1.0006623900827085,176.52849004647922
7.053866496,1.0006346870196414,176.2713946329108
7.058133504,1.0005696167673488,176.01495880449568
7.0624,1.0004708993261717,175.75966452245808
7.066666496,1.0003445498683174,175.50595594509156
7.070933504,1.0001979484985764,175.2541947253011
7.0752,1.0000398084636468,175.00454870753543
7.079466496,0.9998795822188686,174.7571506450495
7.083733504,0.9997269663570553,174.51197514566664
7.088,0.9995909092507972,174.26885878657723
7.092266496,0.9994796451609697,174.02747605179167
7.096533504,0.9993997700281135,173.7874459632779
7.1008,0.9993561148091393,173.54831315901822
7.105066496,0.9993512236833064,173.30952058010743
7.109333504,0.9993857023554594,173.07051484522046
7.1136,0.9994571583793029,172.8307885011872
7.117866496,0.9995616510405185,172.58981335714992
7.122133504,0.9996927563166151,172.34718480231948
7.1264,0.9998427919828962,172.10256669177718
7.130666496,1.000002725248934,171.85581327071108
7.134933504,1.0001631322265032,171.60675409936016
7.1392,1.0003142351212329,171.35552338876732
7.143466496,1.0004473078460374,171.10228854058826
7.147733504,1.000554158558999,170.8473866904414
7.152,1.0006284404935613,170.59122415116215
7.156266496,1.0006658665283563,170.33423706098097
7.160533504,1.0006639878098234,170.0770410985198
7.1648,1.0006231196697204,169.82011581875048
7.169066496,1.000545267863931,169.56404565655615
7.173333504,1.0004354035551628,169.30928911769712
7.1776,1.000299995884507,169.0562728609753
7.181866496,1.0001469524475826,168.8052571015725
7.186133504,0.9999854425332477,168.55650958607504
7.1904,0.9998251740895059,168.3100185725209
7.194666496,0.9996755465814313,168.06571899490027
7.198933504,0.9995456639692506,167.8234130840303
7.2032,0.9994432625254522,167.58275995208092
7.207466496,0.9993743452951241,167.34330251481447
7.211733504,0.9993433246502008,167.1045779673233
7.216,0.999351921644138,166.8660108063738
7.220266496,0.9993994910195466,166.62706287590814
7.224533504,0.9994836049077582,166.38720552811807
7.2288,0.9995990352983247,166.14592521686222
7.233066496,0.9997387990098231,165.90287347952437
7.237333504,0.999894848108404,165.65776543387565
7.2416,1.0000577735577754,165.41037066854153
7.245866496,1.0002177052924053,165.16073895688533
7.250133504,1.000365288976049,164.90892953332502
7.2544,1.0004915896607973,164.65521098154403
7.258666496,1.0005890750132989,164.3999314739523
7.262933504,1.0006520631974445,164.1434981902011
7.2672,1.00067669203444,163.8864667205803
7.271466496,1.0006613266680295,163.62940385190862
7.275733504,1.0006070482471332,163.37279591035553
7.28,1.0005169164666121,163.1172211072386
7.284266496,1.0003963669393134,162.86313316352738
7.288533504,1.0002526055161498,162.61090459252975
7.2928,1.0000939212047837,162.36084628523093
7.297066496,0.999930118099966,162.11303684522423
7.301333504,0.9997705877163805,161.86751273446626
7.3056,0.9996252681497091,161.62419184817864
7.309866496,0.9995024926366721,161.38272330017014
7.314133504,0.9994097694767202,161.14283611652579
7.3184,0.9993526718378372,160.90399485325312
7.322666496,0.9993347482169541,160.66569589022524
7.326933504,0.9993569090242714,160.4273784654116
7.3312,0.9994177882275308,160.18850859136697
7.335466496,0.9995141381812186,159.94850305070284
7.339733504,0.9996398223988872,159.7069750332269
7.344,0.9997877109614882,159.4635173764859
7.348266496,0.9999488393009851,159.21788736814332
7.352533504,1.000113530885499,158.96999913457336
7.3568,1.000271998839299,158.7198345425988
7.361066496,1.0004149338734092,158.46752088482086
7.365333504,1.0005335460170812,158.21339961071135
7.3696,1.0006209191430007,157.95785026132143
7.373866496,1.000671688425714,157.70132631697558
7.378133504,1.0006830812417125,157.44436064721356
7.3824,1.0006541173226993,157.18754136378203
7.386666496,1.0005865401763199,156.93139489332057
7.390933504,1.0004844360664515,156.67645225586216
7.3952,1.0003537156371076,156.4231667297837
7.399466496,1.0002021816670663,156.17187799085394
7.403733504,1.000039098396873,155.92280037248915
7.408,0.9998737388282114,155.67604929293435
7.412266496,0.9997163883048515,155.43160241656258
7.416533504,0.9995761875422132,155.189281532508
7.4208,0.9994616668161299,154.94874096339615
7.425066496,0.9993795312164694,154.7096134363524
7.429333504,0.9993348367873203,154.4714082763418
7.4336,0.9993303556691966,154.2335665271984
7.437866496,0.9993662988654752,153.99548600303248
7.442133504,0.9994404704334847,153.7567032411942
7.4464,0.9995486772135226,153.5166003155347
7.450666496,0.9996842063985633,153.27482570207846
7.454933504,0.9998392742657338,153.030973889087
7.4592,1.000004529560865,152.7849105193792
7.463466496,1.0001700092271146,152.53651285988204
7.467733504,1.0003259522973758,152.2858804667751
7.472,1.0004629471031863,152.0331933183138
7.476266496,1.0005730169697042,151.77876579855518
7.480533504,1.0006493639764387,151.5230266006047
7.4848,1.0006875338785153,151.2665213449553
7.489066496,1.0006851703766386,151.00976709915992
7.493333504,1.0006423155916986,150.75332338087316
7.4976,1.0005617618372964,150.49778594382656
7.501866496,1.000447856307835,150.24359267666856
7.506133504,1.0003077326135168,149.9912102753911
7.5104,1.000149455909824,149.7409397959739
7.514666496,0.9999826722226548,149.49298891591556
7.518933504,0.9998171437921235,149.24738469827165
7.5232,0.9996627725656287,149.00405748208567
7.527466496,0.9995288657274385,148.7627819500943
7.531733504,0.9994234218685432,148.52320912209464
7.536,0.999352703231539,148.28487595717553
7.540266496,0.9993211014584615,148.04730971495727
7.544533504,0.9993304755251436,147.809945224086
7.5488,0.9993802218953629,147.57213142263237
7.553066496,0.9994674910935584,147.33340328124703
7.557333504,0.9995870389603008,147.09320341873698
7.5616,0.9997318423997364,146.85119073179794
7.565866496,0.9998931979843165,146.60699923518274
7.570133504,1.0000614478443404,146.36053797557526
7.5744,1.000226752543858,146.11171870833053
7.578666496,1.0003790092847316,145.86067505456646
7.582933504,1.0005091893675675,145.60767280346093
7.5872,1.00060963710243,145.35303374005298
7.591466496,1.000674209303459,145.09727291956466
7.595733504,1.000699135083778,144.84088802716786
7.6,1.0006827456171465,144.58444363220522
7.604266496,1.000626099461631,144.3285338062232
7.608533504,1.000532490374018,144.0736901514467
7.6128,1.0004075693155332,143.82038896986825
7.617066496,1.0002585908938504,143.56903428954337
7.621333504,1.0000945728360828,143.31991005114054
7.6256,0.9999250466171092,143.073139078637
7.629866496,0.9997603754435734,142.82877165449017
7.634133504,0.9996103136177356,142.5865927687814
7.6384,0.9994837492414081,142.34641594505615
7.642666496,0.9993883608379379,142.10785063470246
7.646933504,0.9993298248233945,141.8703528100425
7.6512,0.9993118510078999,141.63342216193215
7.655466496,0.9993353081127504,141.39648620490146
7.659733504,0.999399020010662,141.15894574689574
7.664,0.9994990163033702,140.92029128542896
7.668266496,0.9996295125774848,140.68002353798892
7.672533504,0.9997826484864272,140.43774973241597
7.6768,0.9999493430173765,140.19326355598403
7.681066496,1.0001197397401265,139.94640745789636
7.685333504,1.0002834476696125,139.69722278729103
7.6896,1.0004309823247517,139.44585234618947
7.693866496,1.0005533388389838,139.19260335458557
7.698133504,1.000643138910605,138.9378680592698
7.7024,1.0006951257763335,138.68214800257357
7.706666496,1.0007063353745658,138.42602226362024
7.710933504,1.000675774110256,138.1700259038957
7.7152,1.000605251293866,137.91476402046067
7.719466496,1.0004990871260135,137.66074483126584
7.723733504,1.0003634912244936,137.4084596073983
7.728,1.000206558157929,137.15823546366633
7.732266496,1.0000375095065765,136.91034312685042
7.736533504,0.9998665995605108,136.6648461872794
7.7408,0.9997038628944616,136.4217368241407
7.745066496,0.9995591855528294,136.18081920953614
7.749333504,0.9994411261439539,135.94176332420827
7.7536,0.9993566421594254,135.70417102097034
7.757866496,0.9993111505198704,135.46753291448996
