freq,mag,phase
6.0,0.9999991356850724,115.43740080944833
6.008,0.9999992303448109,115.3483138895443
6.016,0.9999993223150685,115.25921581135334
6.024,0.9999994116318202,115.1701065627067
6.032,0.9999994983308089,115.08098613145135
6.04,0.999999582447546,114.99185450544996
6.048,0.9999996640173123,114.90271167258102
6.056,0.9999997430751583,114.8135576207389
6.064,0.9999998196559045,114.72439233783389
6.072,0.9999998937941436,114.6352158117923
6.08,0.9999999655242401,114.54602803055646
6.088,1.0,114.45682898208484
6.096,0.9999999999999999,114.36761865435213
6.104,1.0,114.27839703534917
6.112,0.9999999999999999,114.18916411308324
6.12,1.0,114.09991987557785
6.128,1.0,114.01066431087308
6.136,1.0,113.92139740702544
6.144,0.9999999999999999,113.83211915210799
6.152,1.0,113.74282953421043
6.16,0.9999999999999999,113.65352854143919
6.168,1.0,113.56421616191739
6.176,1.0,113.47489238378495
6.184,1.0,113.38555719519876
6.192,0.9999999999999999,113.29621058433257
6.2,1.0,113.20685253937711
6.208,0.9999999999999999,113.1174830485403
6.216,0.9999999999999999,113.02810210004702
6.224,1.0,112.9387096821395
6.232,0.9999999999999999,112.84930578307711
6.24,0.9999999999999999,112.75989039113658
6.248,0.9999999999999999,112.67046349461205
6.256,1.0,112.58102508181504
6.264,1.0,112.49157514107463
6.272,1.0,112.40211366073744
6.28,1.0000000000000002,112.31264062916775
6.288,1.0,112.22315603474752
6.296,0.9999999999999998,112.13365986587645
6.304,0.9999999999999999,112.04415211097214
6.312,1.0,111.95463275846996
6.32,1.0,111.86510179682337
6.328,1.0,111.7755592145037
6.336,1.0,111.68600500000049
6.344,1.0,111.59643914182135
6.352,1.0,111.50686162849208
6.36,1.0,111.41727244855682
6.368,1.0,111.32767159057799
6.376,1.0,111.23805904313642
6.384,1.0,111.14843479483142
6.392,1.0,111.05879883428081
6.4,1.0,110.96915115012104
6.408,1.0,110.87949173100712
6.416,1.0,110.7898205656129
6.424,0.9999999999999998,110.70013764263096
6.432,1.0,110.61044295077272
6.44,1.0,110.52073647876853
6.448,1.0,110.43101821536776
6.456,1.0,110.34128814933874
6.464,1.0,110.25154626946897
6.472,1.0000000000000002,110.16179256456516
6.48,1.0,110.0720270234532
6.4879999999999995,0.9999999999999999,109.98224963497834
6.496,0.9999999999999999,109.89246038800516
6.504,1.0,109.80265927141772
6.5120000000000005,1.0,109.71284627411957
6.52,1.0,109.62302138503387
6.5280000000000005,0.9999999999999999,109.53318459310336
6.536,0.9999999999999999,109.44333588729057
6.5440000000000005,1.0,109.35347525657775
6.552,1.0,109.26360268996707
6.5600000000000005,1.0,109.17371817648048
6.568,1.0,109.08382170516008
6.5760000000000005,1.0,108.99391326506789
6.584,0.9999999999999998,108.90399284528614
6.592,1.0,108.81406043491718
6.6,1.0,108.72411602308368
6.608,0.9999999999999999,108.63415959892865
6.616,0.9999999999999999,108.54419115161541
6.624,0.9999999999999999,108.45421067032787
6.632,1.0,108.3642181442704
6.64,0.9999999999999999,108.27421356266801
6.648,0.9999999999999999,108.18419691476643
6.656,1.0,108.09416818983212
6.664,1.0,108.00412737715236
6.672,1.0,107.91407446603539
6.68,0.9999999999999999,107.82400944581036
6.688,0.9999999999999999,107.73393230582755
6.696,0.9999999999999999,107.64384303545833
6.704,1.0,107.55374162409528
6.712,1.0,107.46362806115228
6.72,1.0,107.37350233606455
6.728,0.9999999999999999,107.28336443828879
6.736,0.9999999999999999,107.19321435730316
6.744,1.0,107.1030520826075
6.752,1.0,107.01287760372324
6.76,0.9999999999999999,106.92269091019362
6.768,1.0,106.83249199158372
6.776,1.0,106.74228083748052
6.784,1.0,106.65205743749303
6.792,1.0,106.56182178125236
6.8,0.9999999999999999,106.47157385841177
6.808,1.0,106.38131365864682
6.816,1.0,106.2910411716554
6.824,1.0,106.20075638715782
6.832,0.9999999999999999,106.11045929489698
6.84,1.0,106.02014988463837
6.848,1.0,105.92982814617022
6.856,1.0,105.83949406930357
6.864,0.9999999990366397,105.74914764387233
6.872,0.9999999675696332,105.65878885973346
6.88,0.9999999361075624,105.56841770676704
6.888,0.9999999046657829,105.47803417487629
6.896,0.999999873259514,105.38763825398782
6.904,0.9999998419038372,105.29722993405163
6.912,0.9999998106137004,105.20680920504121
6.92,0.9999997794039183,105.11637605695371
6.928,0.9999997482891744,105.02593047981006
6.936,0.9999997172840223,104.93547246365499
6.944,0.9999996864028871,104.8450019985572
6.952,0.9999996556600687,104.75451907460955
6.96,0.9999996250697413,104.66402368192905
6.968,0.9999995946459573,104.57351581065707
6.976,0.9999995644026478,104.48299545095945
6.984,0.9999995343536258,104.39246259302665
6.992,0.9999995045125868,104.3019172270738
7.0,0.9999994748931116,104.21135934334096
7.008,0.9999994455086688,104.12078893209319
7.016,0.999999416372617,104.03020598362065
7.024,0.9999993874982056,103.93961048823887
7.032,0.9999993588985789,103.8490024362888
7.04,0.999999330586778,103.75838181813702
7.048,0.9999993025757433,103.66774862417591
7.056,0.9999992748783165,103.57710284482374
7.064,0.9999992475072444,103.48644447052497
7.072,0.9999992204751808,103.39577349175032
7.08,0.9999991937946902,103.30508989899698
7.088,0.9999991674782498,103.21439368278887
7.096,0.9999991415382539,103.12368483367673
7.104,0.9999991159870159,103.03296334223845
7.112,0.9999990908367732,102.94222919907914
7.12,0.999999066099689,102.85148239483148
7.128,0.9999990417878577,102.7607229201559
7.136,0.9999990179133076,102.66995076574077
7.144,0.9999989944880053,102.57916592230274
7.152,0.9999989715238602,102.48836838058692
7.16,0.9999989490327287,102.39755813136723
7.168,0.9999989270264187,102.3067351654466
7.176,0.9999989055166947,102.2158994736573
7.184,0.9999988845152826,102.12505104686126
7.192,0.9999988640338756,102.03418987595036
7.2,0.9999988440841392,101.94331595184678
7.208,0.9999988246777172,101.85242926550339
7.216,0.9999988058262378,101.76152980790404
7.224,0.9999987875413212,101.670617570064
7.232,0.9999987698345846,101.5796925430303
7.24,0.9999987527176509,101.48875471788232
7.248,0.9999987362021564,101.39780408573199
7.256,0.9999987202997578,101.30684063772448
7.264,0.9999987050221406,101.21586436503856
7.272,0.9999986903810305,101.12487525888719
7.28,0.9999986763882004,101.033873310518
7.288,0.9999986630554809,100.94285851121403
7.296,0.9999986503947728,100.85183085229407
7.304,0.9999986384180559,100.76079032511362
7.312,0.9999986271374036,100.6697369210653
7.32,0.9999986165649938,100.57867063157978
7.328,0.9999986067131245,100.48759144812642
7.336,0.9999985975942258,100.39649936221421
7.344,0.9999985892208784,100.3053943653925
7.352,0.9999985816058281,100.214276449252
7.36,0.9999985747620044,100.12314560542576
7.368,0.9999985687025388,100.03200182559021
7.376,0.999998563440786,99.94084510146628
7.384,0.9999985589903453,99.84967542482055
7.392,0.9999985553650832,99.75849278746654
7.4,0.999998552579159,99.66729718126611
7.4079999999999995,0.9999985506470512,99.57608859813085
7.416,0.9999985495835878,99.48486703002365
7.4239999999999995,0.9999985494039745,99.3936324689604
7.432,0.9999985501238312,99.3023849070117
7.4399999999999995,0.9999985517592257,99.21112433630488
7.448,0.9999985543267145,99.11985074902593
7.4559999999999995,0.9999985578433833,99.02856413742191
7.464,0.9999985623268935,98.9372644938031
7.4719999999999995,0.999998567795532,98.84595181054584
7.48,0.9999985742682632,98.75462608009505
7.4879999999999995,0.9999985817647886,98.66328729496747
7.496,0.9999985903056093,98.5719354477548
7.504,0.9999985999120956,98.48057053112719
7.5120000000000005,0.9999986106065606,98.38919253783718
7.52,0.9999986224123438,98.2978014607238
7.5280000000000005,0.9999986353538999,98.20639729271704
7.536,0.9999986494568965,98.11498002684291
7.5440000000000005,0.9999986647483221,98.02354965622861
7.552,0.9999986812566038,97.93210617410854
7.5600000000000005,0.9999986990117379,97.84064957383062
7.568,0.9999987180454304,97.74917984886336
7.5760000000000005,0.9999987383912585,97.65769699280342
7.584,0.99999876008484,97.56620099938421
7.5920000000000005,0.9999987831640296,97.47469186248493
7.6,0.9999988076691307,97.38316957614103
7.6080000000000005,0.9999988336431335,97.29163413455518
7.616,0.999998861131979,97.20008553210994
7.6240000000000006,0.9999988901848514,97.10852376338137
7.632,0.9999989208545099,97.01694882315432
7.640000000000001,0.999998953197655,96.92536070643933
7.648,0.9999989872753416,96.83375940849152
7.656000000000001,0.9999990231534444,96.74214492483141
7.664,0.9999990609031799,96.65051725126861
7.672,0.9999991006016993,96.55887638392785
7.68,0.9999991423327579,96.46722231927848
7.688,0.9999991861874755,96.3755550541675
7.696,0.9999992322652033,96.28387458585688
7.704,0.999999280674512,96.19218091206547
7.712,0.9999993315343283,96.10047403101676
7.72,0.999999384975233,96.00875394149284
7.728,0.9999994411409634,95.91702064289578
7.736,0.9999995001901503,95.82527413531788
7.744,0.9999995622983309,95.73351441962176
7.752,0.9999996276602973,95.64174149753242
7.76,0.9999996964928409,95.54995537174325
7.768,0.9999997690379783,95.45815604603813
7.776,0.9999998455667526,95.36634352543322
7.784,0.9999999263837406,95.27451781634156
7.792,0.9999999999999999,95.18267892676502
7.8,1.0,95.0908268665192
7.808,1.0,94.99896164749755
7.816,1.0,94.90708328398308
7.824,0.9999999999999999,94.81519179301765
7.832,1.0,94.72328719484115
7.84,1.0,94.63136951341649
7.848,0.9999999999999999,94.53943877705939
7.856,0.9999999999999999,94.44749501919763
7.864,0.9999999999999999,94.35553827929037
7.872,1.0,94.26356860394596
7.88,1.0,94.17158604828695
7.888,1.0,94.07959067762279
7.896,0.9999999999999999,93.98758256950563
7.904,1.0,93.89556181626095
7.912,1.0,93.80352852810104
7.92,0.9999999999999999,93.7114828369393
7.928,1.0,93.61942490101443
7.936,0.9999999999999998,93.52735491037309
7.944,1.0,93.43527309307535
7.952,0.9999999999999999,93.34317972151435
7.96,1.0,93.25107511709112
7.968,1.0,93.15895964872713
7.976,0.9999999999999998,93.0668337140206
7.984,1.0,92.97469767525887
7.992,1.0,92.88255167961216
8.0,1.0,92.79039517622596
8.008,1.0,92.69822560629665
8.016,0.9999999999999999,92.60603470658329
8.024000000000001,1.0,92.51379752570342
8.032,0.9999999999999999,92.4214389938688
8.04,1.0,92.32874845902504
8.048,1.0000000000000002,92.23539851709211
8.056000000000001,0.9999999999999999,92.14198734189479
8.064,1.0,92.04965796725718
8.072,0.999998956346175,91.95778967095336
8.08,0.9999951754402092,91.86585747053725
8.088000000000001,0.9999939815323796,91.77379822619362
8.096,0.9999937667181609,91.68164148685555
8.104,0.9999939256266492,91.58941579428111
8.112,0.999994222590153,91.497139892117
8.120000000000001,0.9999945617580074,91.40482549192349
8.128,0.9999949032982377,91.31248000579038
8.136,0.9999952310309335,91.2201082584265
8.144,0.9999955391328637,91.1277134876738
8.152000000000001,0.999995826380612,91.03529793030835
8.16,0.9999960935554267,90.94286317270551
8.168,0.9999963422424997,90.85041036664977
8.176,0.999996574270578,90.75794036595107
8.184000000000001,0.9999967914545783,90.66545381528286
8.192,0.9999969954843132,90.57295120940616
8.2,0.9999971878840618,90.48043293356135
8.208,0.999997370006019,90.38789929159346
8.216000000000001,0.999997543039227,90.29535052590984
8.224,0.999997708024793,90.20278683188764
8.232,0.9999978658728478,90.11020836843942
8.24,0.9999980173790839,90.01761526587327
8.248000000000001,0.9999981632399207,89.92500763181798
8.256,0.9999983040659689,89.83238555574349
8.264,0.9999984403937644,89.73974911244895
8.272,0.9999985726958908,89.64709836478163
8.280000000000001,0.9999987013896563,89.5544333657768
8.288,0.9999988268445124,89.46175416035693
8.296,0.9999989493883862,89.36906078669199
8.304,0.9999990693130918,89.276353277297
8.312,0.9999991868789533,89.18363165992415
8.32,0.999999302318765,89.09089595829231
8.328,0.9999994158411881,88.998146192688
8.336,0.9999995276336724,88.90538238046301
8.344,0.9999996378649731,88.81260453644892
8.352,0.9999997466873273,88.71981267330409
8.36,0.999999854238338,88.62700680180588
8.368,0.9999999606426111,88.53418693109748
8.376,1.0,88.44135306889778
8.384,0.9999999999999998,88.3485052216802
8.392,0.9999999999999999,88.25564339482595
8.4,1.0,88.16276759275574
8.408,1.0,88.06987781904346
8.416,0.9999999999999999,87.97697407651455
8.424,0.9999999999999999,87.88405636733162
8.432,0.9999999999999999,87.79112469306877
8.44,1.0,87.69817905477697
8.448,1.0,87.60521945304097
8.456,1.0,87.51224588802972
8.464,0.9999999999999999,87.4192583595404
8.472,1.0,87.3262568670378
8.48,1.0,87.23324140968883
8.488,0.9999999999999999,87.14021198639341
8.496,1.0,87.04716859581177
8.504,1.0,86.95411123638908
8.512,1.0,86.86103990637714
8.52,1.0,86.76795460385411
8.528,1.0,86.67485532674196
8.536,0.9999999999999999,86.58174207282246
8.544,1.0,86.48861483975129
8.552,1.0,86.395473625071
8.56,1.0,86.30231842622257
8.568,1.0,86.20914924055604
8.576,0.9999999999999999,86.11596606533996
8.584,1.0,86.02276889777018
8.592,1.0,85.92955773497769
8.6,0.9999999999999999,85.83633257403594
8.608,1.0,85.74309341196724
8.616,0.9999999999999999,85.64984024574895
8.624,1.0,85.55657307231883
8.632,0.9999999999999999,85.46329188858026
8.64,0.9999999999999998,85.36999669140671
8.648,1.0,85.27668747764612
8.656,1.0,85.18336424412468
8.664,1.0,85.09002698765059
8.672,1.0,84.99667570501725
8.68,1.0,84.90331039300648
8.688,0.9999999999999999,84.80993104839116
8.696,1.0,84.71653766793807
8.704,1.0,84.62313024841013
8.712,1.0,84.52970878656888
8.72,1.0,84.43627327917626
8.728,1.0,84.34282372299693
8.736,0.9999999999999999,84.24936011479971
8.744,1.0,84.15588245135964
8.752,0.9999999999999999,84.0623907294592
8.76,1.0,83.96888494589001
8.768,1.0,83.87536509745408
8.776,1.0,83.78183118096521
8.784,0.9999999999999999,83.68828319324999
8.792,0.9999999999999999,83.59472113114914
8.8,1.0,83.5011449915184
8.808,0.9999999999999999,83.4075547712296
8.815999999999999,0.9999999999999999,83.31395046717154
8.824,1.0,83.22033207625083
8.832,1.0,83.12669959539281
8.84,0.9999999999999999,83.03305302154226
8.847999999999999,0.9999999999999999,82.9393923516641
8.856,1.0,82.84571758274397
8.864,1.0,82.75202871178921
8.872,1.0,82.65832573582908
8.879999999999999,1.0,82.56460865191556
8.888,1.0,82.47087745712382
8.896,1.0,82.3771321485527
8.904,1.0,82.28337272332533
8.911999999999999,1.0,82.18959917858942
8.92,1.0,82.09581151151777
8.928,1.0,82.00200971930869
8.936,1.0,81.90819379918646
8.943999999999999,1.0,81.81436374840153
8.952,1.0,81.72051956423095
8.96,0.9999999999999999,81.62666124397884
8.968,1.0,81.53278878497655
8.975999999999999,0.9999999999999999,81.43890218458296
8.984,1.0000000000000002,81.34500144018489
8.992,1.0,81.25108654919725
9.0,0.9999999999999999,81.15715750906348
9.008,0.9999999999999999,81.06321431725557
9.016,0.9999999999999999,80.96925697127445
9.024000000000001,0.9999999999999998,80.87528546865023
9.032,0.9999999999999999,80.78129980694241
9.04,1.0,80.68729998374
9.048,1.0,80.5932859966618
9.056000000000001,1.0,80.49925784335662
9.064,1.0,80.40521552150344
9.072,1.0,80.31115902881153
9.08,0.9999999999999999,80.2170883630207
9.088000000000001,0.9999999999999998,80.12300352190147
9.096,0.9999999999999999,80.02890450325519
9.104,1.0000000000000002,79.93479130491417
9.112,0.9999999999999999,79.84066392474189
9.120000000000001,1.0,79.74652236063311
9.128,1.0,79.65236661051404
9.136,0.9999999999999999,79.55819667234238
9.144,0.9999999999999999,79.46401254410758
9.152000000000001,0.9999999999999999,79.36981422383082
9.16,0.9999999999999999,79.27560170956531
9.168,1.0,79.18137499939621
9.176,0.9999999999999999,79.08713409144086
9.184000000000001,1.0,78.99287898384887
9.192,0.9999999999999999,78.89860967480224
9.2,0.9999999999999999,78.80432616251541
9.208,1.0,78.71002844523532
9.216000000000001,0.9999999999999999,78.61571652124171
9.224,1.0,78.52139038884698
9.232,1.0,78.42705004639639
9.24,1.0,78.33269549226812
9.248000000000001,1.0,78.23832672487337
9.256,1.0,78.14394374265652
9.264,1.0,78.04954654409501
9.272,1.0,77.95513512769959
9.280000000000001,1.0,77.86070949201432
9.288,1.0,77.76626963561674
9.296,0.9999999999999999,77.6718155571178
9.304,1.0,77.577347255162
9.312000000000001,1.0,77.4828647284275
9.32,0.9999999999999999,77.38836797562614
9.328,1.0,77.29385699550349
9.336,0.9999999999999999,77.19933178683895
9.344,0.9999999999999999,77.10479234844584
9.352,0.9999999999999999,77.01023867917131
9.36,1.0000000000000002,76.91567077789666
9.368,0.9999999999999999,76.82108864353714
9.376,1.0,76.72649227504216
9.384,0.9999999999999999,76.63188167139529
9.392,1.0,76.53725683161437
9.4,0.9999999999999999,76.44261775475147
9.408,1.0,76.34796443989303
9.416,0.9999999999999999,76.25329688615989
9.424,1.0,76.15861509270727
9.432,1.0,76.06391905872493
9.44,1.0,75.96920878343721
9.448,1.0,75.87448426610295
9.456,1.0,75.77974550601569
9.464,1.0,75.68499250250356
9.472,1.0,75.59022525492958
9.48,0.9999999999999999,75.4954437626914
9.488,0.9999999999999999,75.40064802522156
9.496,1.0,75.3058380419874
9.504,1.0000000000000002,75.21101381249125
9.512,0.9999999999999998,75.1161753362703
9.52,0.9999999999999999,75.02132261289681
9.528,1.0,74.92645564197798
9.536,0.9999999999999999,74.83157442315618
9.544,1.0,74.7366789561088
9.552,1.0,74.64176924054846
9.56,1.0,74.54684527622285
9.568,0.9999999999999998,74.45190706291503
9.576,0.9999999999999999,74.35695460044323
9.584,0.9999999999999999,74.26198788866101
9.592,1.0,74.16700692745722
9.6,1.0,74.07201171675621
9.608,1.0,73.97700225651754
9.616,1.0,73.88197854673643
9.624,1.0,73.78694058744344
9.632,1.0,73.69188837870469
9.64,1.0,73.59682192062178
9.648,1.0,73.50174121333205
9.656,1.0,73.40664625700825
9.664,1.0,73.31153705185898
9.672,1.0,73.21641359812834
9.68,0.9999999999999999,73.12127589609626
9.688,0.9999999999999998,73.02612394607834
9.696,1.0,72.93095774842604
9.704,0.9999999999999999,72.83577730352651
9.712,1.0,72.74058261180284
9.72,1.0,72.64537367371392
9.728,1.0,72.55015048975459
9.736,1.0,72.45491306045552
9.744,0.9999999999999999,72.35966138638346
9.752,0.9999999999999999,72.26439546814106
9.76,0.9999999999999999,72.169115306367
9.768,1.0000000000000002,72.073820901736
9.776,1.0,71.97851225495887
9.784,0.9999999999999998,71.88318936678246
9.792,1.0,71.78785223798985
9.8,1.0,71.6925008694001
9.808,1.0,71.59713526186867
9.816,1.0,71.50175541628703
9.824,1.0,71.40636133358298
9.832,1.0,71.31095301472054
9.84,1.0,71.21553046070005
9.847999999999999,1.0,71.12009367255814
9.856,1.0,71.02464265136773
9.864,0.9999999999999999,70.92917739823818
9.872,1.0,70.83369791431521
9.879999999999999,1.0,70.73820420078093
9.888,1.0,70.64269625885383
9.896,1.0,70.547174089789
9.904,1.0,70.45163769487789
9.911999999999999,1.0,70.3560870754485
9.92,1.0,70.26052223286537
9.928,1.0,70.16494316852956
9.936,1.0,70.06934988387877
9.943999999999999,1.0000000000000002,69.97374238038722
9.952,1.0,69.8781206595658
9.96,1.0,69.78248472296201
9.968,0.9999999999999998,69.68683457216011
9.975999999999999,1.0,69.59117020878094
9.984,0.9999999999999999,69.49549163448206
9.992,0.9999999999999999,69.39979885095784
10.0,1.0,69.30409185993936
10.008,0.9999999999999998,69.20837066319447
10.016,0.9999999999999998,69.11263526252782
10.024000000000001,0.9999999999999998,69.01688565978087
10.032,1.0,68.92112185683197
10.04,0.9999999999999999,68.82534385559629
10.048,1.0,68.72955165802583
10.056000000000001,1.0,68.63374526610959
10.064,1.0,68.53792468187343
10.072,1.0,68.44208990738021
10.08,1.0,68.34624094472964
10.088000000000001,0.9999999999999998,68.25037779605849
10.096,0.9999999999999999,68.15450046354056
10.104,0.9999999999999999,68.05860894938658
10.112,0.9999999999999999,67.96270325584437
10.120000000000001,0.9999999999999999,67.86678338519881
10.128,0.9999999999999998,67.77084933977186
10.136,1.0,67.67490112192252
10.144,0.9999999999999999,67.57893873404694
10.152000000000001,0.9999999999999999,67.48296217857842
10.16,0.9999999999999999,67.38697145798741
10.168,1.0,67.29096657478146
10.176,1.0,67.19494753150535
10.184000000000001,1.0,67.0989143307411
10.192,1.0,67.00286697510786
10.2,1.0,66.90680546726213
10.208,0.9999999999999999,66.81072980989751
