freq,mag,phase
6.0,0.9999999999999999,46.593451248599536
6.008,1.0,46.35889328690452
6.016,1.0,46.12415456687911
6.024,1.0,45.88923539754269
6.032,0.9999999999999999,45.654136091547954
6.04,0.9999999291815697,45.418856965188354
6.048,0.9999994923028395,45.183398338405034
6.056,0.9999990697763894,44.947760534793915
6.064,0.9999986613713007,44.711943881612406
6.072,0.9999982668582273,44.475948709786145
6.08,0.9999978860094001,44.23977535391553
6.088,0.9999975185986302,44.003424152282065
6.096,0.9999971644013141,43.76689544685469
6.104,0.999996823194438,43.53018958329584
6.112,0.9999964947565796,43.29330691096733
6.12,0.9999961788679146,43.05624778293631
6.128,0.9999958753102183,42.819012555980784
6.136,0.99999558386687,42.58160159059524
6.144,0.9999953043228574,42.344015250995824
6.152,0.9999950364647789,42.10625390512575
6.16,0.9999947800808477,41.868317924660175
6.168,0.9999945349608945,41.63020768501115
6.176,0.9999943008963714,41.391923565332384
6.184,0.9999940776803552,41.1534659485237
6.192,0.99999386510755,40.9148352212355
6.2,0.9999936629742894,40.67603177387307
6.208,0.9999934710785416,40.43705600060057
6.216,0.9999932892199108,40.197908299344945
6.224,0.9999931171996392,39.95858907179969
6.232,0.9999929548206117,39.71909872342849
6.24,0.9999928018873562,39.47943766346848
6.248,0.9999926582060479,39.23960630493368
6.256,0.9999925235845109,38.99960506461789
6.264,0.99999239783222,38.759434363097604
6.272,0.9999922807603046,38.51909462473485
6.28,0.9999921721815481,38.27858627767959
6.288,0.9999920719103927,38.03790975387216
6.296,0.9999919797629392,37.79706548904544
6.304,0.9999918955569502,37.55605392272683
6.312,0.9999918191118514,37.31487549824014
6.32,0.9999917502487325,37.07353066270721
6.328,0.9999916887903502,36.832019867049254
6.336,0.9999916345611277,36.59034356598834
6.344,0.9999915873871577,36.34850221804834
6.352,0.9999915470962029,36.106496285555835
6.36,0.9999915135176979,35.864326234640934
6.368,0.9999914864827484,35.62199253523763
6.376,0.9999914658241342,35.37949566108431
6.384,0.9999914513763092,35.13683608972378
6.392,0.9999914429754012,34.89401430250323
6.4,0.9999914404592145,34.65103078457406
6.408,0.9999914436672286,34.407886024891376
6.416,0.999991452440599,34.16458051621332
6.424,0.9999914666221588,33.921114755100355
6.432,0.9999914860564174,33.67748924191414
6.44,0.9999915105895609,33.43370448081632
6.448,0.9999915400694526,33.1897609797671
6.456,0.999991574345633,32.94565925052364
6.464,0.9999916132693183,32.70139980863815
6.472,0.9999916566934015,32.45698317345593
6.48,0.9999917044724512,32.21240986811309
6.4879999999999995,0.9999917564627118,31.96768041953411
6.496,0.9999918125221015,31.722795358429074
6.504,0.9999918725102124,31.477755219291133
6.5120000000000005,0.9999919362883102,31.232560540392964
6.52,0.9999920037193317,30.987211863783994
6.5280000000000005,0.9999920746678854,30.7417097352864
6.536,0.9999921490002491,30.496054704491915
6.5440000000000005,0.9999922265843681,30.250247324757435
6.552,0.9999923072898559,30.00428815320134
6.5600000000000005,0.9999923909879903,29.758177750698756
6.568,0.9999924775517133,29.511916681877345
6.5760000000000005,0.9999925668556285,29.26550551511221
6.584,0.9999926587759995,29.018944822521274
6.592,0.9999927531907481,28.77223517995969
6.6,0.9999928499794513,28.525377167014746
6.608,0.9999929490233401,28.278371367000055
6.616,0.9999930502052974,28.031218366949727
6.624,0.9999931534098538,27.783918757612344
6.632,0.9999932585231861,27.53647313344462
6.64,0.9999933654331156,27.288882092604865
6.648,0.9999934740291033,27.041146236946304
6.656,0.9999935842022486,26.793266172010096
6.664,0.9999936958452849,26.545242507018116
6.672,0.9999938088525776,26.2970758548656
6.68,0.9999939231201203,26.048766832113476
6.688,0.9999940385455315,25.800316058980556
6.696,0.9999941550280502,25.551724159335386
6.704,0.9999942724685343,25.302991760688005
6.712,0.9999943907694547,25.054119494181396
6.72,0.9999945098348931,24.805107994582706
6.728,0.9999946295705362,24.555957900274294
6.736,0.9999947498836735,24.30666985324451
6.744,0.9999948706831924,24.057244499078248
6.752,0.9999949918795724,23.807682486947286
6.76,0.9999951133848834,23.55798446960039
6.768,0.999995235112779,23.308151103353197
6.776,0.9999953569784922,23.058183048077865
6.784,0.9999954788988311,22.80808096719248
6.792,0.9999956007921739,22.557845527650244
6.8,0.999995722578463,22.307477399928466
6.808,0.9999958441792014,22.056977258017252
6.816,0.9999959655174454,21.806345779408044
6.824,0.9999960865178014,21.555583645081857
6.832,0.9999962071064182,21.304691539497338
6.84,0.999996327210983,21.053670150578586
6.848,0.9999964467607153,20.802520169702692
6.856,0.9999965656863607,20.55124229168715
6.864,0.9999966839201845,20.299837214776918
6.872,0.9999968013959666,20.04830564063135
6.88,0.9999969180489948,19.796648274310822
6.888,0.9999970338160584,19.54486582426318
6.896,0.9999971486354415,19.292959002309928
6.904,0.9999972624469174,19.04092852363222
6.912,0.9999973751917408,18.788775106756535
6.92,0.9999974868126418,18.536499473540264
6.928,0.9999975972538181,18.28410234915695
6.936,0.9999977064609294,18.031584462081312
6.944,0.999997814381089,17.778946544074117
6.952,0.9999979209628569,17.52618933016672
6.96,0.999998026156233,17.273313558645473
6.968,0.9999981299126481,17.0203199710358
6.976,0.9999982321849589,16.76720931208618
6.984,0.9999983329274372,16.513982329751716
6.992,0.9999984320957656,16.260639775177715
7.0,0.9999985296470255,16.007182402682794
7.008,0.9999986255396932,15.753610969741946
7.016,0.9999987197336285,15.499926236969271
7.024,0.9999988121900683,15.246128968100567
7.032,0.9999989028716181,14.9922199299756
7.04,0.9999989917422429,14.738199892520209
7.048,0.999999078767258,14.484069628728221
7.056,0.9999991639133237,14.229829914643023
7.064,0.999999247148432,13.975481529339053
7.072,0.9999993284419004,13.721025254902978
7.08,0.9999994077643626,13.466461876414662
7.088,0.9999994850877594,13.211792181927951
7.096,0.9999995603853287,12.957016962451197
7.104,0.9999996336315976,12.702137011927578
7.112,0.9999997048023715,12.44715312721522
7.12,0.9999997738747264,12.192066108067067
7.128,0.9999998408269974,11.936876757110541
7.136,0.9999999056387711,11.681585879827018
7.144,0.9999999682908731,11.42619428453105
7.152,1.0,11.170702782349398
7.16,0.9999999999999999,10.915112187199838
7.168,1.0,10.659423315769745
7.176,1.0,10.403636987494522
7.184,1.0,10.14775402453573
7.192,0.9999999999999999,9.891775251759086
7.2,1.0,9.635701496712205
7.208,0.9999999999999999,9.379533589602188
7.216,1.0,9.123272363272909
7.224,0.9999999999999999,8.86691865318223
7.232,0.9999999999999998,8.610473297378896
7.24,1.0,8.35393713647928
7.248,1.0,8.097311013643923
7.256,1.0,7.840595774553882
7.264,1.0,7.583792267386856
7.272,1.0,7.3269013427931355
7.28,1.0,7.069923853871345
7.288,0.9999999999999999,6.812860656144022
7.296,1.0,6.555712607532922
7.304,1.0,6.298480568334236
7.312,1.0,6.04116540119354
7.32,1.0,5.783767971080648
7.328,1.0,5.526289145264106
7.336,0.9999999999999999,5.268729793285704
7.344,1.0000000000000002,5.011090786934675
7.352,1.0,4.753373000221749
7.36,0.9999999999999999,4.495577309353027
7.368,0.9999999999999999,4.23770459270367
7.376,1.0,3.979755730791424
7.384,1.0,3.7217316062499566
7.392,0.9999999999999998,3.4636331038020116
7.4,0.9999999999999999,3.205461110232425
7.4079999999999995,1.0,2.9472165143609583
7.416,1.0,2.6889002070148154
7.4239999999999995,1.0,2.430513081001436
7.432,1.0,2.172056031080431
7.4399999999999995,1.0,1.9135299539361428
7.448,0.9999999999999999,1.6549357481492188
7.4559999999999995,1.0,1.3962743141689145
7.464,0.9999999999999999,1.1375465542842873
7.4719999999999995,1.0,0.8787533725962196
7.48,1.0,0.6198956749882925
7.4879999999999995,1.0,0.3609743690985091
7.496,1.0,0.10199036428986404
7.504,1.0,-0.1570554283782358
7.5120000000000005,0.9999999999999999,-0.4161620961796792
7.52,1.0,-0.6753287247505391
7.5280000000000005,0.9999999999999999,-0.9345543981190432
7.536,0.9999999999999999,-1.1938381987347655
7.5440000000000005,1.0,-1.4531792074988559
7.552,1.0,-1.712576503793508
7.5600000000000005,1.0,-1.9720291655124644
7.568,1.0,-2.231536269090737
7.5760000000000005,1.0,-2.4910968895353793
7.584,1.0,-2.750710100455455
7.5920000000000005,0.9999999447798457,-3.010374974093055
7.6,0.9999998876941621,-3.270090581353536
7.6080000000000005,0.9999998290816885,-3.52985599183676
7.616,0.9999997689762992,-3.7896702738675483
7.6240000000000006,0.9999997074123887,-4.049532494527203
7.632,0.999999644424861,-4.3094417196841475
7.640000000000001,0.9999995800491136,-4.569397014025684
7.648,0.9999995143210263,-4.829397441088855
7.656000000000001,0.9999994472769469,-5.089442063292398
7.664,0.9999993789536779,-5.349529941967847
7.672,0.9999993093884629,-5.609660137391628
7.68,0.9999992386189737,-5.869831708816514
7.688,0.9999991666832967,-6.130043714503646
7.696,0.9999990936199197,-6.390295211754428
7.704,0.9999990194677179,-6.650585256942617
7.712,0.9999989442659418,-6.910912905546421
7.72,0.9999988680542024,-7.171277212180742
7.728,0.999998790872459,-7.431677230629477
7.736,0.9999987127610048,-7.692112013877894
7.744,0.9999986337604546,-7.952580614145115
7.752,0.9999985539117309,-8.213082082916632
7.76,0.9999984732560513,-8.473615470976924
7.768,0.9999983918349132,-8.734179828442164
7.776,0.9999983096900834,-8.994774204792932
7.784,0.9999982268635833,-9.255397648907064
7.792,0.9999981433976748,-9.516049209092492
7.8,0.999998059334849,-9.776727933120233
7.808,0.999997974717812,-10.037432868257346
7.816,0.9999978895894717,-10.298163061299984
7.824,0.9999978039929249,-10.558917558606533
7.832,0.9999977179714449,-10.819695406130704
7.84,0.9999976315684661,-11.080495649454809
7.848,0.9999975448275746,-11.341317333822927
7.856,0.9999974577924917,-11.602159504174253
7.864,0.9999973705070632,-11.863021205176373
7.872,0.9999972830152453,-12.123901481258672
7.88,0.9999971953610933,-12.384799376645683
7.888,0.9999971075887462,-12.64571393539055
7.896,0.9999970197424164,-12.90664420140845
7.904,0.999996931866376,-13.167589218510106
7.912,0.9999968440049432,-13.428548030435248
7.92,0.9999967562024719,-13.689519680886178
7.928,0.9999966685033361,-13.95050321356128
7.936,0.9999965809519209,-14.21149767218858
7.944,0.9999964935926072,-14.472502100559328
7.952,0.9999964064697597,-14.733515542561557
7.96,0.9999963196277163,-14.994537042213661
7.968,0.9999962331107736,-15.25556564369801
7.976,0.9999961469631763,-15.516600391394514
7.984,0.9999960612291044,-15.777640329914194
7.992,0.9999959759526608,-16.03868450413281
8.0,0.9999958911778594,-16.299731959224403
8.008,0.9999958069486137,-16.560781740694825
8.016,0.9999957233087235,-16.82183289441549
8.024000000000001,0.9999956403018658,-17.08288446665656
8.032,0.9999955579715797,-17.343935504120697
8.04,0.9999954763612567,-17.604985053976637
8.048,0.9999953955141292,-17.86603216389255
8.056000000000001,0.9999953154732578,-18.12707588206941
8.064,0.9999952362815201,-18.388115257274478
8.072,0.9999951579816011,-18.649149338874846
8.08,0.9999950806159796,-18.910177176870686
8.088000000000001,0.999995004226918,-19.171197821928416
8.096,0.9999949288564509,-19.43221032541415
8.104,0.999994854546375,-19.693213739427005
8.112,0.9999947813382367,-19.954207116832226
8.120000000000001,0.9999947092733225,-20.21518951129415
8.128,0.9999946383926472,-20.476159977309504
8.136,0.9999945687369444,-20.737117570240525
8.144,0.9999945003466544,-20.998061346347818
8.152000000000001,0.9999944332619154,-21.25899036282321
8.16,0.999994367522552,-21.51990367782271
8.168,0.9999943031680655,-21.780800350499447
8.176,0.9999942402376225,-22.04167944103632
8.184000000000001,0.9999941787700469,-22.302540010678506
8.192,0.9999941188038081,-22.56338112176623
8.2,0.9999940603770122,-22.8242018377674
8.208,0.9999940035273914,-23.08500122330994
8.216000000000001,0.9999939482922954,-23.345778344214057
8.224,0.9999938947086804,-23.606532267524656
8.232,0.9999938428131009,-23.867262061543684
8.24,0.9999937926417,-24.127966795862093
8.248000000000001,0.9999937442301999,-24.38864554139185
8.256,0.9999936976138932,-24.649297370397914
8.264,0.9999936528276333,-24.909921356530273
8.272,0.9999936099058265,-25.17051657485555
8.280000000000001,0.9999935688824219,-25.43108210188858
8.288,0.999993529790904,-25.69161701562406
8.296,0.9999934926642832,-25.952120395568144
8.304,0.9999934575350884,-26.212591322769658
8.312,0.9999934244353578,-26.473028879851228
8.32,0.999993393396631,-26.73343215104073
8.328,0.9999933644499408,-26.993800222201962
8.336,0.999993337625806,-27.254132180865916
8.344,0.999993312954223,-27.51442711626117
8.352,0.9999932904646578,-27.77468411934499
8.36,0.9999932701860393,-28.034902282833453
8.368,0.9999932521467515,-28.295080701232305
8.376,0.999993236374625,-28.55521847086682
8.384,0.9999932228969327,-28.815314689912427
8.392,0.99999321174038,-29.07536845842429
8.4,0.9999932029310991,-29.335378878367692
8.408,0.9999931964946418,-29.595345053647318
8.416,0.9999931924559741,-29.85526609013743
8.424,0.9999931908394678,-30.115141095710793
8.432,0.9999931916688953,-30.374969180268604
8.44,0.9999931949674236,-30.634749455769175
8.448,0.999993200757607,-30.89448103625751
8.456,0.9999932090613821,-31.15416303789372
8.464,0.9999932199000624,-31.413794578982273
8.472,0.9999932332943307,-31.67337478000022
8.48,0.9999932492642363,-31.932902763626025
8.488,0.999993267829187,-32.1923776547675
8.496,0.9999932890079453,-32.45179858059035
8.504,0.9999933128186228,-32.71116467054576
8.512,0.9999933392786755,-32.970475056398705
8.52,0.9999933684048992,-33.2297288722551
8.528,0.9999934002134231,-33.488925254589866
8.536,0.9999934347197081,-33.748063342273696
8.544,0.9999934719385395,-34.007142276600796
8.552,0.9999935118840246,-34.266161201315334
8.56,0.9999935545695884,-34.52511926263886
8.568,0.9999936000079682,-34.78401560929636
8.576,0.9999936482112115,-35.04284939254333
8.584,0.9999936991906717,-35.3016197661915
8.592,0.9999937529570041,-35.56032588663553
8.6,0.9999938095201625,-35.81896691287849
8.608,0.9999938688893971,-36.07754200655798
8.616,0.9999939310732499,-36.33605033197139
8.624,0.9999939960795527,-36.594491056101695
8.632,0.9999940639154242,-36.85286334864221
8.64,0.9999941345872665,-37.11116638202205
8.648,0.9999942081007634,-37.36939933143059
8.656,0.9999942844608785,-37.6275613748425
8.664,0.9999943636718512,-37.88565169304174
8.672,0.9999944457371966,-38.143669469646326
8.68,0.9999945306597025,-38.40161389113191
8.688,0.9999946184414268,-38.65948414685608
8.696,0.999994709083699,-38.917279429081624
8.704,0.9999948025871147,-39.17499893300043
8.712,0.9999948989515367,-39.43264185675633
8.72,0.999994998176094,-39.69020740146859
8.728,0.999995100259179,-39.947694771254355
8.736,0.999995205198448,-40.20510317325177
8.744,0.9999953129908205,-40.462431817641935
8.752,0.9999954236324774,-40.71967991767169
8.76,0.9999955371188624,-40.976846689675185
8.768,0.9999956534446799,-41.23393135309614
8.776,0.9999957726038958,-41.490933130509035
8.784,0.9999958945897376,-41.74785124764102
8.792,0.9999960193946938,-42.004684933392646
8.8,0.9999961470105153,-42.26143341985934
8.808,0.9999962774282145,-42.51809594235165
8.815999999999999,0.999996410638067,-42.77467173941632
8.824,0.9999965466296121,-43.031160052856436
8.832,0.9999966853916529,-43.28756012775145
8.84,0.9999968269122587,-43.543871212477214
8.847999999999999,0.999996971178765,-43.80009255872578
8.856,0.9999971181777753,-44.056223421524834
8.864,0.9999972678951622,-44.31226305925679
8.872,0.9999974203160702,-44.56821073367802
8.879999999999999,0.9999975754249159,-44.82406570993769
8.888,0.9999977332053904,-45.0798272565964
8.896,0.9999978936404624,-45.335494645644346
8.904,0.9999980567123788,-45.59106715251965
8.911999999999999,0.9999982224026679,-45.846544056126376
8.92,0.9999983906921415,-46.10192463885218
8.928,0.999998561560899,-46.35720818658571
8.936,0.999998734988327,-46.61239398873388
8.943999999999999,0.9999989109531054,-46.86748133823919
8.952,0.999999089433209,-47.12246953159627
8.96,0.9999992704059105,-47.37735786886854
8.968,0.9999994538477843,-47.63214565370453
8.975999999999999,0.9999996397347098,-47.886832193354195
8.984,0.9999998280418751,-48.14141679868477
8.992,1.0,-48.39589878419632
9.0,1.0,-48.650277468037245
9.008,1.0,-48.90455217201972
9.016,1.0,-49.158722221634534
9.024000000000001,1.0,-49.412786946065836
9.032,0.9999999999999998,-49.66674567820566
9.04,0.9999999999999999,-49.92059775466848
9.048,0.9999999999999998,-50.17434251580515
9.056000000000001,0.9999999999999999,-50.42797930571669
9.064,0.9999999999999999,-50.68150747226792
9.072,0.9999999999999999,-50.93492636710113
9.08,0.9999999999999999,-51.18823534564908
9.088000000000001,0.9999999999999999,-51.441433767147835
9.096,1.0,-51.69452099464958
9.104,1.0,-51.94749639503527
9.112,1.0,-52.20035933902677
9.120000000000001,1.0,-52.45310920119873
9.128,0.9999999999999999,-52.705745359990594
9.136,1.0,-52.95826719771821
9.144,0.9999999999999999,-53.210674100585095
9.152000000000001,1.0,-53.46296545869349
9.16,1.0,-53.7151406660553
9.168,1.0,-53.96719912060288
9.176,1.0,-54.21914022419939
9.184000000000001,1.0,-54.470963382648954
9.192,1.0,-54.72266800570661
9.2,0.9999999999999999,-54.97425350708833
9.208,1.0000000000000002,-55.22571930448033
9.216000000000001,0.9999999999999999,-55.47706481954833
9.224,1.0,-55.72828947794673
9.232,0.9999999999999999,-55.97939270932763
9.24,1.0,-56.230373947349214
9.248000000000001,1.0,-56.481232629684236
9.256,1.0,-56.73196819802815
9.264,0.9999999999999999,-56.9825800981073
9.272,1.0,-57.23306777968646
9.280000000000001,0.9999999999999999,-57.483430696576335
9.288,1.0,-57.73366830664087
9.296,1.0,-57.98378007180454
9.304,1.0,-58.233765458059
9.312000000000001,1.0,-58.48362393546968
9.32,0.9999999999999999,-58.73335497818228
9.328,1.0,-58.982958064429056
9.336,0.9999999999999999,-59.232432676534785
9.344,1.0,-59.48177830092224
9.352,1.0,-59.730994428118244
9.36,0.9999999999999999,-59.98008055275844
9.368,0.9999999999999999,-60.22903617359297
9.376,1.0,-60.47786079349084
9.384,0.9999999999999999,-60.72655391944515
9.392,1.0,-60.97511506257699
9.4,0.9999999999999999,-61.223543738140314
9.408,1.0,-61.47183946552545
9.416,0.9999999999999999,-61.720001768263394
9.424,1.0,-61.96803017402906
9.432,0.9999999999999999,-62.21592421464509
9.44,1.0,-62.46368342608468
9.448,0.9999999999999999,-62.711307348475
9.456,0.9999999999999999,-62.95879552609961
9.464,1.0,-63.20614750740144
9.472,0.9999999999999998,-63.45336284498484
9.48,0.9999999999999999,-63.70044109561812
9.488,1.0,-63.94738182023522
9.496,0.9999999999999999,-64.19418458393784
9.504,1.0000000000000002,-64.44084895599669
9.512,1.0,-64.6873745098532
9.52,1.0,-64.93376082312054
9.528,1.0,-65.18000747758472
9.536,0.9999999999999999,-65.42611405920525
9.544,0.9999999999999999,-65.67208015811605
9.552,1.0,-65.91790536862548
9.56,1.0,-66.16358928921701
9.568,0.9999999999999999,-66.4091315225488
9.576,1.0,-66.65453167545404
9.584,1.0000000000000002,-66.8997893589401
9.592,1.0,-67.14490418818852
9.6,1.0,-67.38987578255384
9.608,0.9999999999999999,-67.6347037655631
9.616,1.0,-67.87938776491437
9.624,1.0,-68.12392741247591
9.632,0.9999999999999999,-68.3683223442843
9.64,0.9999999999999998,-68.61257220054324
9.648,1.0,-68.85667662562135
9.656,0.9999999999999998,-69.10063526805052
9.664,1.0,-69.34444778052345
9.672,1.0,-69.5881138198917
9.68,1.0,-69.8316330471627
9.688,0.9999999999999999,-70.0750051274976
9.696,1.0,-70.31822973020793
9.704,0.9999999999999999,-70.56130652875301
9.712,1.0000000000000002,-70.80423520073634
9.72,0.9999999999999999,-71.0470154279027
9.728,0.9999999999999998,-71.28964689613416
9.736,0.9999999999999998,-71.53212929544681
9.744,1.0,-71.7744623199866
9.752,0.9999999999999998,-72.01664566802557
9.76,1.0,-72.2586790419574
9.768,1.0,-72.50056214829343
9.776,0.9999999999999999,-72.74229469765775
9.784,0.9999999999999999,-72.98387640478302
9.792,1.0,-73.22530698850521
9.8,1.0,-73.46658617175902
9.808,0.9999999999999999,-73.70771368157244
9.816,1.0,-73.94868924906189
