freq,mag,phase
6.0,0.9999997114234301,141.93545881732717
6.008,0.9999998116068117,141.88308081923876
6.016,0.999999908528878,141.83069637107542
6.024,1.0,141.7783054619565
6.032,0.9999999999999999,141.72590808099932
6.04,0.9999999999999999,141.67350421731928
6.048,1.0,141.6210938600298
6.056,0.9999999999999999,141.56867699824238
6.064,1.0,141.5162536210666
6.072,0.9999999999999999,141.46382371761015
6.08,0.9999999999999999,141.41138727697884
6.088,0.9999999999999999,141.35894428827655
6.096,1.0,141.3064947406054
6.104,1.0,141.25403862306544
6.112,1.0,141.20157592475513
6.12,1.0,141.14910663477102
6.128,0.9999999999999999,141.09663074220774
6.136,1.0,141.0441482361582
6.144,1.0,140.99165910571358
6.152,1.0,140.9391633399631
6.16,1.0,140.88666092799446
6.168,1.0,140.83415185889336
6.176,0.9999999999999999,140.78163612174396
6.184,0.9999999999999999,140.7291137056285
6.192,1.0,140.6765845996277
6.2,1.0,140.62404879282036
6.208,1.0,140.57150627428376
6.216,0.9999999999999998,140.51895703309341
6.224,1.0,140.46640105832313
6.232,1.0,140.41383833904518
6.24,1.0,140.36126886433
6.248,1.0,140.30869262324651
6.256,0.9999999999999999,140.256109604862
6.264,1.0,140.20351979824207
6.272,1.0,140.15092319245082
6.28,0.9999999999999998,140.09831977655057
6.288,0.9999999999999999,140.04570953960223
6.296,1.0,139.99309247066506
6.304,0.9999999999999999,139.94046855879677
6.312,1.0,139.88783779305342
6.32,0.9999999999999999,139.83520016248966
6.328,1.0,139.78255565615848
6.336,1.0000000000000002,139.72990426311148
6.344,1.0,139.6772459723986
6.352,0.9999999999999999,139.62458077306832
6.36,0.9999999999999998,139.57190865416766
6.368,1.0,139.5192296047421
6.376,1.0,139.4665436138356
6.384,1.0,139.41385067049077
6.392,1.0,139.36115076374867
6.4,1.0,139.30844388264882
6.408,1.0,139.2557300162295
6.416,1.0,139.2030091535274
6.424,1.0,139.15028128357784
6.432,1.0,139.09754639541464
6.44,1.0,139.0448044780703
6.448,0.9999999999999999,138.99205552057586
6.456,1.0,138.93929951196097
6.464,0.9999999999999998,138.88653644125392
6.472,1.0,138.8337662974816
6.48,0.9999999999999999,138.78098906966943
6.4879999999999995,0.9999999999999999,138.72820474684167
6.496,0.9999999999999999,138.675413318021
6.504,0.9999999999999999,138.62261477222887
6.5120000000000005,1.0,138.5698090984854
6.52,1.0,138.51699628580923
6.5280000000000005,0.9999999999999999,138.46417632321788
6.536,1.0,138.41134919972734
6.5440000000000005,0.9999999999999999,138.35851490435243
6.552,1.0,138.30567342610652
6.5600000000000005,0.9999999999999999,138.2528247540018
6.568,1.0,138.19996887704912
6.5760000000000005,1.0,138.14710578425792
6.584,1.0,138.0942354646366
6.592,0.9999999999999999,138.04135790719195
6.6,1.0,137.9884731009298
6.608,1.0,137.9355810348545
6.616,1.0,137.8826816979692
6.624,0.9999999999999999,137.82977507927578
6.632,1.0,137.77686116777488
6.64,0.9999999999999999,137.72393995246586
6.648,1.0,137.67101142234685
6.656,0.9999999999999999,137.6180755664147
6.664,1.0,137.56513237366508
6.672,1.0,137.51218183309237
6.68,0.9999999610464273,137.4592239336898
6.688,0.9999999009529827,137.40625866444927
6.696,0.9999998401426252,137.3532860143615
6.704,0.9999997786370778,137.30030597241597
6.712,0.9999997164578851,137.247318527601
6.72,0.9999996536264136,137.19432366890368
6.728,0.9999995901638514,137.14132138530988
6.736,0.9999995260912091,137.08831166580418
6.744,0.9999994614293204,137.0352944993701
6.752,0.9999993961988421,136.98226987498987
6.76,0.9999993304202555,136.92923778164453
6.768,0.9999992641138653,136.87619820831398
6.776,0.9999991972998009,136.82315114397682
6.784,0.9999991299980179,136.7700965776106
6.792,0.9999990622282964,136.71703449819148
6.8,0.9999989940102432,136.6639648946946
6.808,0.999998925363291,136.61088775609392
6.816,0.9999988563067,136.5578030713621
6.824,0.9999987868595578,136.50471082947064
6.832,0.999998717040779,136.45161101939
6.84,0.999998646869108,136.39850363008918
6.848,0.9999985763631166,136.34538865053628
6.856,0.9999985055412065,136.2922660696981
6.864,0.9999984344216086,136.23913587654016
6.872,0.999998363022385,136.18599806002703
6.88,0.9999982913614269,136.13285260912184
6.888,0.9999982194564581,136.07969951278673
6.896,0.9999981473250324,136.02653875998254
6.904,0.9999980749845367,135.97337033966903
6.912,0.9999980024521902,135.9201942408047
6.92,0.9999979297450443,135.86701045234685
6.928,0.9999978568799844,135.8138189632517
6.936,0.9999977838737302,135.76061976247414
6.944,0.9999977107428342,135.70741283896797
6.952,0.9999976375036851,135.65419818168576
6.96,0.9999975641725065,135.60097577957896
6.968,0.9999974907653572,135.54774562159767
6.976,0.9999974172981326,135.4945076966909
6.984,0.9999973437865649,135.4412619938065
6.992,0.999997270246223,135.388008501891
7.0,0.999997196692514,135.3347472098898
7.008,0.9999971231406825,135.28147810674707
7.016,0.9999970496058117,135.22820118140575
7.024,0.9999969761028245,135.1749164228076
7.032,0.9999969026464824,135.12162381989316
7.04,0.9999968292513871,135.06832336160164
7.048,0.999996755931982,135.01501503687115
7.056,0.9999966827025496,134.96169883463855
7.064,0.9999966095772146,134.90837474383937
7.072,0.9999965365699442,134.85504275340796
7.08,0.9999964636945475,134.8017028522774
7.088,0.9999963909646757,134.74835502937958
7.096,0.9999963183938251,134.69499927364498
7.104,0.9999962459953341,134.641635574003
7.112,0.9999961737823868,134.5882639193816
7.12,0.9999961017680113,134.5348842987075
7.128,0.9999960299650814,134.48149670090623
7.136,0.9999959583863164,134.42810111490192
7.144,0.999995887044282,134.37469752961746
7.152,0.9999958159513911,134.32128593397428
7.16,0.9999957451199034,134.26786631689276
7.168,0.9999956745619263,134.21443866729174
7.176,0.999995604289416,134.16100297408872
7.184,0.9999955343141771,134.10755922620004
7.192,0.9999954646478636,134.05410741254047
7.2,0.9999953953019789,134.00064752202357
7.208,0.9999953262878772,133.94717954356145
7.216,0.9999952576167631,133.89370346606484
7.224,0.999995189299693,133.84021927844316
7.232,0.9999951213475737,133.7867269696043
7.24,0.9999950537711659,133.73322652845485
7.248,0.9999949865810825,133.67971794389985
7.256,0.999994919787789,133.626201204843
7.264,0.9999948534016053,133.57267630018657
7.272,0.9999947874327059,133.51914321883132
7.28,0.9999947218911192,133.46560194967645
7.288,0.9999946567867297,133.41205248161987
7.296,0.9999945921292771,133.3584948035578
7.304,0.9999945279283577,133.30492890438506
7.312,0.9999944641934252,133.25135477299492
7.32,0.9999944009337894,133.19777239827908
7.328,0.9999943381586186,133.14418176912775
7.336,0.9999942758769401,133.09058287442943
7.344,0.9999942140976388,133.03697570307116
7.352,0.9999941528294601,132.9833602439384
7.36,0.9999940920810086,132.92973648591484
7.368,0.9999940318607499,132.87610441788263
7.376,0.9999939721770101,132.82246402872232
7.384,0.9999939130379768,132.7688153073127
7.392,0.9999938544517,132.7151582425309
7.4,0.9999937964260914,132.66149282325233
7.4079999999999995,0.9999937389689271,132.60781903835067
7.416,0.9999936820878452,132.55413687669792
7.4239999999999995,0.9999936257903492,132.50044632716427
7.432,0.9999935700838066,132.4467473786181
7.4399999999999995,0.9999935149754499,132.39304001992608
7.448,0.9999934604723772,132.33932423995287
7.4559999999999995,0.9999934065815536,132.28560002756146
7.464,0.9999933533098102,132.23186737161296
7.4719999999999995,0.9999933006638455,132.17812626096642
7.48,0.9999932486502263,132.12437668447924
7.4879999999999995,0.9999931972753868,132.07061863100665
7.496,0.9999931465456307,132.01685208940202
7.504,0.9999930964671311,131.96307704851677
7.5120000000000005,0.9999930470459311,131.9092934972002
7.52,0.999992998287944,131.85550142429966
7.5280000000000005,0.9999929501989541,131.80170081866044
7.536,0.9999929027846176,131.74789166912564
7.5440000000000005,0.9999928560504625,131.6940739645364
7.552,0.9999928100018899,131.64024769373157
7.5600000000000005,0.9999927646441735,131.58641284554793
7.568,0.9999927199824613,131.53256940882002
7.5760000000000005,0.9999926760217752,131.47871737238012
7.584,0.9999926327670122,131.42485672505828
7.5920000000000005,0.9999925902229447,131.37098745568227
7.6,0.9999925483942206,131.31710955307753
7.6080000000000005,0.9999925072853652,131.2632230060671
7.616,0.9999924669007801,131.20932780347167
7.6240000000000006,0.9999924272447449,131.1554239341095
7.632,0.999992388321417,131.10151138679637
7.640000000000001,0.999992350134833,131.0475901503456
7.648,0.999992312688909,130.99366021356798
7.656000000000001,0.99999227598744,130.9397215652717
7.664,0.9999922400341023,130.88577419426238
7.672,0.9999922048324531,130.83181808934296
7.68,0.9999921703859306,130.77785323931374
7.688,0.999992136697856,130.7238796329723
7.696,0.999992103771433,130.6698972591134
7.704,0.9999920716097481,130.61590610652905
7.712,0.9999920402157719,130.5619061640084
7.72,0.9999920095923597,130.5078974203377
7.728,0.9999919797422521,130.45387986430026
7.736,0.9999919506680742,130.39985348467647
7.744,0.9999919223723387,130.3458182702436
7.752,0.9999918948574442,130.2917742097759
7.76,0.999991868125677,130.23772129204448
7.768,0.9999918421792113,130.18365950581727
7.776,0.9999918170201101,130.12958883985908
7.784,0.9999917926503252,130.07550928293128
7.792,0.9999917690716984,130.021420823792
7.8,0.9999917462859623,129.96732345119597
7.808,0.9999917242947396,129.9132171538945
7.816,0.9999917030995455,129.85910192063545
7.824,0.9999916827017872,129.804977740163
7.832,0.9999916631027639,129.75084460121784
7.84,0.9999916443036697,129.69670249253693
7.848,0.9999916263055917,129.6425514028535
7.856,0.9999916091095122,129.58839132089702
7.864,0.9999915927163088,129.53422223539314
7.872,0.9999915771267545,129.4800441350634
7.88,0.9999915623415203,129.42585700862557
7.888,0.999991548361173,129.37166084479324
7.896,0.9999915351861782,129.31745563227585
7.904,0.9999915228168995,129.2632413597787
7.912,0.9999915112536002,129.20901801600283
7.92,0.9999915004964435,129.15478558964483
7.928,0.9999914905454927,129.10054406939693
7.936,0.9999914814007127,129.0462934439468
7.944,0.9999914730619699,128.99203370197765
7.952,0.9999914655290342,128.93776483216783
7.96,0.9999914588015775,128.88348682319105
7.968,0.9999914528791768,128.82919966371617
7.976,0.9999914477613131,128.77490334240707
7.984,0.9999914434473727,128.72059784792268
7.992,0.9999914399366485,128.66628316891672
8.0,0.9999914372283399,128.61195929403777
8.008,0.999991435321554,128.55762621192912
8.016,0.9999914342153059,128.50328391122855
8.024000000000001,0.9999914339085201,128.44893238056844
8.032,0.9999914344000304,128.39457160857546
8.04,0.9999914356885813,128.34020158387065
8.048,0.9999914377728288,128.28582229506915
8.056000000000001,0.9999914406513412,128.23143373078017
8.064,0.9999914443225987,128.17703587960693
8.072,0.999991448784996,128.12262873014632
8.08,0.9999914540368421,128.06821227098908
8.088000000000001,0.9999914600763612,128.01378649071944
8.096,0.9999914669016938,127.95935137791514
8.104,0.9999914745108969,127.90490692114717
8.112,0.999991482901946,127.85045310897975
8.120000000000001,0.9999914920727347,127.79598992997012
8.128,0.9999915020210768,127.74151737266851
8.136,0.9999915127447054,127.68703542561774
8.144,0.9999915242412765,127.63254407735339
8.152000000000001,0.9999915365083674,127.57804331640344
8.16,0.9999915495434789,127.52353313128825
8.168,0.999991563344036,127.46901351052014
8.176,0.9999915779073894,127.41448444260365
8.184000000000001,0.9999915932308147,127.35994591603495
8.192,0.9999916093115163,127.30539791930187
8.2,0.9999916261466258,127.25084044088376
8.208,0.9999916437332045,127.19627346925122
8.216000000000001,0.9999916620682439,127.14169699286592
8.224,0.999991681148667,127.08711100018039
8.232,0.9999917009713297,127.03251547963791
8.24,0.9999917215330212,126.97791041967217
8.248000000000001,0.9999917428304662,126.92329580870727
8.256,0.9999917648603254,126.86867163515724
8.264,0.9999917876191962,126.81403788742598
8.272,0.9999918111036161,126.75939455390699
8.280000000000001,0.999991835310061,126.70474162298318
8.288,0.9999918602349493,126.6500790830266
8.296,0.9999918858746417,126.59540692239807
8.304,0.9999919122254427,126.54072512944715
8.312,0.999991939283603,126.48603369251173
8.32,0.9999919670453192,126.43133259991772
8.328,0.9999919955067382,126.37662183997894
8.336,0.9999920246639554,126.32190140099661
8.344,0.9999920545130185,126.26717127125933
8.352,0.9999920850499294,126.2124314390424
8.36,0.9999921162706438,126.1576818926079
8.368,0.9999921481710758,126.10292262020405
8.376,0.9999921807470974,126.04815361006514
8.384,0.9999922139945415,125.99337485041089
8.392,0.9999922479092035,125.9385863294464
8.4,0.999992282486844,125.88378803536148
8.408,0.99999231772319,125.8289799563306
8.416,0.9999923536139379,125.77416208051214
8.424,0.9999923901547546,125.71933439604827
8.432,0.9999924273412816,125.66449689106442
8.44,0.9999924651691355,125.6096495536688
8.448,0.999992503633912,125.5547923719521
8.456,0.999992542731188,125.49992533398685
8.464,0.9999925824565238,125.44504842782709
8.472,0.9999926228054667,125.39016164150779
8.48,0.999992663773554,125.33526496304434
8.488,0.9999927053563149,125.28035838043219
8.496,0.9999927475492754,125.22544188164603
8.504,0.99999279034796,125.17051545463943
8.512,0.9999928337478957,125.11557908734417
8.52,0.9999928777446164,125.06063276766979
8.528,0.999992922333666,125.00567648350267
8.536,0.999992967510602,124.9507102227057
8.544,0.9999930132709997,124.89573397311743
8.552,0.9999930596104568,124.84074772255141
8.56,0.9999931065245985,124.78575145879554
8.568,0.9999931540090807,124.73074516961124
8.576,0.9999932020595956,124.67572884273272
8.584,0.9999932506718776,124.62070246586626
8.592,0.9999932998417068,124.5656660266892
8.6,0.9999933495649171,124.51061951284935
8.608,0.9999933998373995,124.45556291196375
8.616,0.9999934506551099,124.40049621161815
8.624,0.9999935020140756,124.34541939936571
8.632,0.9999935539104012,124.2903324627263
8.64,0.9999936063402765,124.23523538918516
8.648,0.9999936592999836,124.18012816619213
8.656,0.9999937127859043,124.12501078116034
8.664,0.9999937667945303,124.06988322146519
8.672,0.9999938213224697,124.01474547444302
8.68,0.9999938763664573,123.95959752738999
8.688,0.9999939319233637,123.9044393675607
8.696,0.999993987990207,123.84927098216689
8.704,0.9999940445641602,123.79409235837603
8.712,0.999994101642567,123.73890348330987
8.72,0.9999941592229503,123.68370434404285
8.728,0.9999942173030256,123.6284949276007
8.736,0.9999942758807149,123.57327522095862
8.744,0.9999943349541605,123.51804521103968
8.752,0.9999943945217393,123.46280488471291
8.76,0.9999944545820794,123.40755422879165
8.768,0.9999945151340754,123.35229323003139
8.776,0.9999945761769075,123.29702187512801
8.784,0.9999946377100583,123.24174015071537
8.792,0.9999946997333339,123.18644804336334
8.8,0.9999947622468837,123.1311455395755
8.808,0.9999948252512231,123.07583262578666
8.815999999999999,0.9999948887472562,123.0205092883604
8.824,0.9999949527363012,122.96517551358654
8.832,0.9999950172201165,122.9098312876783
8.84,0.9999950822009286,122.85447659676962
8.847999999999999,0.9999951476814608,122.79911142691205
8.856,0.9999952136649667,122.74373576407166
8.864,0.9999952801552616,122.68834959412592
8.872,0.9999953471567591,122.63295290286027
8.879999999999999,0.9999954146745091,122.57754567596443
8.888,0.9999954827142374,122.52212789902892
8.896,0.9999955512823893,122.46669955754102
8.904,0.9999956203861746,122.4112606368808
8.911999999999999,0.9999956900336172,122.35581112231678
8.92,0.9999957602336063,122.3003509990015
8.928,0.9999958309959516,122.24488025196699
8.936,0.9999959023314434,122.18939886611972
8.943999999999999,0.9999959742519151,122.13390682623545
8.952,0.9999960467703111,122.07840411695402
8.96,0.9999961199007581,122.02289072277361
8.968,0.9999961936586435,121.96736662804491
8.975999999999999,0.9999962680606967,121.91183181696476
8.984,0.9999963431250787,121.85628627356981
8.992,0.9999964188714756,121.80072998172966
9.0,0.999996495321201,121.74516292513964
9.008,0.9999965724973046,121.6895850873133
9.016,0.9999966504246875,121.63399645157453
9.024000000000001,0.9999967291302307,121.57839700104934
9.032,0.9999968086429261,121.52278671865692
9.04,0.9999968889940235,121.46716558710064
9.048,0.9999969702171848,121.41153358885842
9.056000000000001,0.9999970523486523,121.35589070617259
9.064,0.9999971354274277,121.30023692103914
9.072,0.9999972194954676,121.24457221519677
9.08,0.9999973045978904,121.18889657011479
9.088000000000001,0.9999973907832035,121.1332099669811
9.096,0.9999974781035462,121.07751238668897
9.104,0.9999975666149518,121.02180380982348
9.112,0.9999976563776315,120.96608421664699
9.120000000000001,0.9999977474562818,120.91035358708422
9.128,0.999997839920416,120.85461190070627
9.136,0.9999979338447231,120.79885913671384
9.144,0.9999980293094571,120.74309527391985
9.152000000000001,0.9999981264008595,120.68732029073088
9.16,0.9999982252116157,120.63153416512782
9.168,0.9999983258413521,120.57573687464559
9.176,0.9999984283971752,120.51992839635174
9.184000000000001,0.9999985329942589,120.46410870682423
9.192,0.9999986397564795,120.40827778212778
9.2,0.9999987488171121,120.35243559778945
9.208,0.999998860319585,120.29658212877303
9.216000000000001,0.9999989744183038,120.24071734945201
9.224,0.9999990912795502,120.18484123358188
9.232,0.9999992110824626,120.12895375427064
9.24,0.9999993340201068,120.07305488394877
9.248000000000001,0.9999994603006478,120.01714459433761
9.256,0.999999590148631,119.96122285641673
9.264,0.9999997238063844,119.90528964039058
9.272,0.9999998615355549,119.84934491565355
9.280000000000001,1.0,119.79338865075499
9.288,1.0,119.73742081336283
9.296,1.0,119.68144137022732
9.304,1.0,119.62545028714423
9.312000000000001,1.0,119.56944752891847
9.32,1.0,119.51343305932836
9.328,1.0,119.45740684109079
9.336,1.0,119.40136883582862
9.344,0.9999999999999999,119.34531900404062
9.352,1.0,119.28925730507521
9.36,1.0,119.23318369710933
9.368,1.0,119.1770981371336
9.376,1.0,119.12100058094643
9.384,0.9999999999999999,119.06489098315848
9.392,1.0,119.00876929721089
9.4,0.9999999999999999,118.95263547541043
9.408,0.9999999999999999,118.89648946898555
9.416,1.0,118.84033122816831
9.424,0.9999999999999998,118.78416070230844
9.432,0.9999999999999999,118.72797784002583
9.44,0.9999999999999999,118.67178258941115
9.448,1.0,118.61557489828411
9.456,0.9999999999999999,118.55935471452199
9.464,1.0,118.50312198647367
9.472,1.0,118.44687666347673
9.48,1.0,118.39061869649913
9.488,0.9999999999999999,118.33434803893094
9.496,0.9999999999999999,118.27806464755712
9.504,1.0,118.221768483747
9.512,1.0,118.165459514904
9.52,0.9999999999999999,118.1091377162265
9.528,0.9999999999999999,118.05280307283921
9.536,1.0,117.99645558236594
9.544,1.0,117.94009525802389
9.552,0.9999999999999999,117.8837221323339
9.56,1.0,117.8273362615517
9.568,1.0,117.77093773093968
9.576,1.0,117.71452666100785
9.584,1.0,117.65810321486228
9.592,1.0,117.60166760679998
9.6,1.0,117.54522011228183
9.608,1.0,117.48876107939115
9.616,1.0,117.43229094183903
9.624,1.0,117.37581023349533
9.632,0.9999999999999998,117.31931960429957
9.64,1.0,117.26281983721256
9.648,1.0,117.2063118656027
9.656,1.0,117.14979679008904
9.664,1.0,117.09327589338508
9.672,1.0,117.03675065108915
9.68,1.0,116.98022273567679
9.688,1.0,116.92369401021597
9.696,1.0,116.86716650766186
9.704,0.9999999999999999,116.81064239117073
9.712,0.9999999999999999,116.75412389096785
9.72,1.0,116.69761321423229
9.728,1.0,116.64111242656692
9.736,0.9999999999999999,116.58462330714589
9.744,1.0,116.52814718456423
9.752,0.9999999999999999,116.47168476629908
9.76,1.0,116.4152359804986
9.768,1.0,116.3587998529657
9.776,1.0,116.30237444289322
9.784,1.0,116.24595685668531
9.792,0.9999999999999998,116.18954334973621
9.8,1.0,116.133129512617
9.808,1.0,116.0767105236557
9.816,1.0,116.02028143808083
9.824,0.9999999999999998,115.96383747796989
9.832,1.0,115.90737428869954
9.84,1.0,115.85088813568541
