freq,mag,phase
6.0,0.9999958666683925,39.00908545956461
6.008,0.999996408669348,38.760941828263405
6.016,0.9999969196988143,38.51261703145621
6.024,0.9999974003999235,38.26411147950181
6.032,0.9999978514096597,38.01542558691807
6.04,0.9999982733588665,37.76655977238647
6.048,0.9999986668722516,37.51751445875641
6.056,0.9999990325683946,37.26829007304934
6.064,0.9999993710597517,37.018887046462794
6.072,0.9999996829526653,36.76930581437398
6.08,0.9999999688473692,36.51954681634339
6.088,1.0,36.269610496118105
6.096,1.0,36.019497301634836
6.104,1.0,35.769207685022835
6.112,0.9999999999999999,35.518742102606616
6.12,0.9999999999999999,35.26810101490827
6.128,1.0,35.01728488664985
6.136,1.0,34.76629418675529
6.144,1.0,34.51512938835225
6.152,1.0,34.26379096877362
6.16,0.9999999999999999,34.012279409558936
6.168,1.0,33.760595196455476
6.176,0.9999999999999999,33.508738819419115
6.184,1.0,33.25671077261507
6.192,1.0,33.00451155441829
6.2,0.9999999999999999,32.75214166741366
6.208,1.0,32.499601618395985
6.216,1.0,32.246891918369734
6.224,0.9999999999999999,31.99401308254854
6.232,1.0,31.7409656303545
6.24,1.0,31.487750085417158
6.248,1.0,31.23436697557233
6.256,1.0,30.98081683286066
6.264,0.9999999999999999,30.72710019352595
6.272,1.0,30.473217598013164
6.28,1.0,30.219169590966334
6.288,1.0,29.96495672122614
6.296,0.9999998881214454,29.71057954182718
6.304,0.9999996652653228,29.45603860999511
6.312,0.9999994312063746,29.201334487143505
6.32,0.9999991863667209,28.9464677388704
6.328,0.9999989311627716,28.691438934954693
6.336,0.9999986660052433,28.436248649352176
6.344,0.999998391299179,28.180897460191442
6.352,0.9999981074439652,27.925385949769403
6.36,0.9999978148333536,27.669714704546692
6.368,0.9999975138554774,27.413884315142674
6.376,0.9999972048928742,27.157895376330334
6.384,0.9999968883225043,26.90174848703078
6.392,0.9999965645157718,26.64544425030758
6.4,0.9999962338385449,26.388983273360843
6.408,0.9999958966511777,26.132366167520914
6.416,0.9999955533085312,25.875593548241998
6.424,0.9999952041599952,25.618666035095384
6.432,0.9999948495495109,25.361584251762423
6.44,0.9999944898155918,25.104348826027337
6.448,0.9999941252913485,24.846960389769627
6.456,0.9999937563045098,24.58941957895633
6.464,0.9999933831774478,24.33172703363394
6.472,0.9999930062272001,24.07388339792011
6.48,0.9999926257654946,23.815889319995055
6.4879999999999995,0.9999922420987738,23.557745452092746
6.496,0.9999918555282188,23.299452450491632
6.504,0.9999914663497754,23.041010975505568
6.5120000000000005,0.9999910748541779,22.78242169147373
6.52,0.9999906813269756,22.523685266751173
6.5280000000000005,0.9999902860485579,22.26480237369817
6.536,0.9999898892941821,22.00577368867015
6.5440000000000005,0.9999894913339973,21.746599892006607
6.552,0.9999890924330731,21.487281668020458
6.5600000000000005,0.999988692851426,21.227819704986388
6.568,0.9999882928440462,20.968214695129692
6.5760000000000005,0.9999878926609266,20.708467334614046
6.584,0.9999874925470885,20.448578323529848
6.592,0.9999870927426129,20.18854836588144
6.6,0.9999866934826656,19.928378169574767
6.608,0.9999862949975281,19.668068446404366
6.616,0.9999858975126259,19.40761991204017
6.624,0.9999855012485583,19.147033286014064
6.632,0.9999851064211278,18.88630929170618
6.64,0.9999847132413691,18.625448656330857
6.648,0.9999843219155805,18.364452110922414
6.656,0.9999839326453535,18.10332039032057
6.664,0.9999835456276036,17.84205423315564
6.672,0.999983161054602,17.580654381833433
6.68,0.9999827791140056,17.31912158251988
6.688,0.9999823999888887,17.057456585125426
6.696,0.9999820238577756,16.795660143289084
6.704,0.999981650894671,16.53373301436229
6.712,0.9999812812690945,16.271675959392372
6.72,0.9999809151461099,16.009489743105956
6.728,0.9999805526863613,15.747175133891801
6.736,0.9999801940461026,15.48473290378368
6.744,0.9999798393772342,15.222163828442737
6.752,0.9999794888273333,14.959468687139731
6.76,0.9999791425396892,14.696648262736906
6.768,0.9999788006533366,14.433703341669691
6.776,0.9999784633030903,14.170634713928052
6.784,0.9999781306195782,13.907443173037603
6.792,0.9999778027292773,13.644129516040438
6.8,0.9999774797545472,13.380694543475744
6.808,0.9999771618136661,13.11713905936007
6.816,0.9999768490208648,12.853463871167373
6.824,0.9999765414863628,12.589669789808816
6.832,0.9999762393164046,12.325757629612262
6.84,0.9999759426132924,12.061728208301536
6.848,0.9999756514754261,11.797582346975377
6.856,0.9999753659973358,11.533320870086202
6.864,0.9999750862697212,11.268944605418527
6.872,0.9999748123794858,11.00445438406719
6.88,0.9999745444097743,10.739851040415301
6.888,0.9999742824400094,10.475135412111872
6.896,0.999974026545929,10.2103083400493
6.904,0.9999737767996232,9.945370668340496
6.912,0.9999735332695713,9.680323244295804
6.92,0.99997329602068,9.41516691839966
6.928,0.9999730651143202,9.149902544286991
6.936,0.9999728406083657,8.884530978719361
6.944,0.9999726225572296,8.619053081560866
6.952,0.9999724110119045,8.353469715753812
6.96,0.9999722060199988,8.087781747294072
6.968,0.9999720076257758,7.8219900452062685
6.976,0.9999718158701922,7.556095481518658
6.984,0.9999716307909364,7.290098931237834
6.992,0.9999714524224683,7.024001272323088
7.0,0.9999712807960558,6.757803385660618
7.008,0.9999711159398152,6.491506155037491
7.016,0.9999709578787517,6.225110467115267
7.024,0.9999708066347948,5.958617211403546
7.032,0.999970662226841,5.6920272802331295
7.04,0.9999705246707914,5.425341568729035
7.048,0.9999703939795913,5.158560974783261
7.056,0.9999702701632699,4.891686399027301
7.064,0.9999701532289801,4.6247187448044285
7.072,0.9999700431810372,4.357658918141821
7.08,0.9999699400209592,4.090507827722336
7.088,0.9999698437475075,3.823266384856181
7.096,0.9999697543567249,3.5559355034522997
7.104,0.999969671841976,3.2885160999895655
7.112,0.9999695961939891,3.0210090934876628
7.12,0.9999695274008928,2.7534154054779822
7.128,0.9999694654482586,2.485735959974003
7.136,0.9999694103191404,2.2179716834416996
7.144,0.9999693619941136,1.9501235047696068
7.152,0.9999693204513158,1.6821923552387392
7.16,0.9999692856664879,1.4141791684922904
7.168,0.999969257613013,1.1460848805051087
7.176,0.9999692362619562,0.8779104295529759
7.184,0.9999692215821064,0.6096567561817131
7.192,0.9999692135400156,0.34132480317606323
7.2,0.9999692121000371,0.07291551552837992
7.208,0.99996921722437,-0.19557015959285473
7.216,0.9999692288730959,-0.4641312728747361
7.224,0.9999692470042191,-0.7327668728918081
7.232,0.999969271573709,-1.0014760061381278
7.24,0.9999693025355375,-1.2702577170595333
7.248,0.9999693398417209,-1.5391110480860053
7.256,0.9999693834423596,-1.8080350396643854
7.264,0.9999694332856767,-2.077028730291043
7.272,0.9999694893180598,-2.3460911565449303
7.28,0.999969551484099,-2.6152213531206696
7.288,0.999969619726629,-2.88441835286183
7.296,0.9999696939867659,-3.153681186794446
7.304,0.99996977420395,-3.423008884160585
7.312,0.9999698603159821,-3.6924004724522326
7.32,0.9999699522590664,-3.9618549774451255
7.328,0.9999700499678472,-4.231371423232963
7.336,0.9999701533754497,-4.500948832261564
7.344,0.9999702624135183,-4.770586225363378
7.352,0.999970377012257,-5.040282621791973
7.36,0.9999704971004674,-5.310037039256762
7.368,0.999970622605588,-5.579848493957841
7.376,0.999970753453733,-5.8497160006209885
7.384,0.9999708895697309,-6.119638572532763
7.392,0.9999710308771632,-6.389615221575779
7.4,0.9999711772984028,-6.659644958264094
7.4079999999999995,0.9999713287546533,-6.9297267917786565
7.416,0.9999714851659847,-7.19985973000313
7.4239999999999995,0.9999716464513745,-7.470042779559337
7.432,0.9999718125287427,-7.740274945843555
7.4399999999999995,0.9999719833149926,-8.010555233062048
7.448,0.9999721587260456,-8.280882644267654
7.4559999999999995,0.9999723386768803,-8.55125618139555
7.464,0.9999725230815695,-8.821674845300024
7.4719999999999995,0.9999727118533165,-9.092137635790454
7.48,0.9999729049044933,-9.362643551668318
7.4879999999999995,0.9999731021466766,-9.633191590763353
7.496,0.999973303490684,-9.903780749970739
7.504,0.9999735088466117,-10.174410025287473
7.5120000000000005,0.9999737181238688,-10.445078411849739
7.52,0.9999739312312153,-10.715784903969432
7.5280000000000005,0.9999741480767965,-10.986528495171704
7.536,0.9999743685681793,-11.257308178231668
7.5440000000000005,0.9999745926123866,-11.528122945212097
7.552,0.9999748201159344,-11.798971787500243
7.5600000000000005,0.9999750509848642,-12.069853695845726
7.568,0.9999752851247797,-12.340767660397466
7.5760000000000005,0.9999755224408806,-12.6117126707417
7.584,0.9999757628379969,-12.88268771593906
7.5920000000000005,0.9999760062206229,-13.153691784562685
7.6,0.9999762524929506,-13.424723864735425
7.6080000000000005,0.999976501558904,-13.695782944168041
7.616,0.9999767533221721,-13.96686801019654
7.6240000000000006,0.9999770076862416,-14.23797804982043
7.632,0.9999772645544304,-14.50911204974016
7.640000000000001,0.9999775238299186,-14.78026899639548
7.648,0.9999777854157831,-15.051447876002875
7.656000000000001,0.9999780492150278,-15.322647674594084
7.664,0.9999783151306153,-15.593867378053542
7.672,0.9999785830654997,-15.865105972156917
7.68,0.9999788529226561,-16.136362442608803
7.688,0.9999791246051137,-16.407635775080898
7.696,0.9999793980159836,-16.67892495525013
7.704,0.999979673058491,-16.950228968836676
7.712,0.9999799496360048,-17.221546801642106
7.72,0.9999802276520672,-17.49287743958747
7.728,0.9999805070104234,-17.7642198687514
7.736,0.99998078761505,-18.03557307540825
7.744,0.9999810693701847,-18.30693604606613
7.752,0.9999813521803539,-18.578307767505066
7.76,0.9999816359504018,-18.849687226815064
7.768,0.9999819205855176,-19.12107341143413
7.776,0.9999822059912632,-19.392465309186377
7.784,0.9999824920736003,-19.663861908320033
7.792,0.9999827787389182,-19.93526219754543
7.8,0.9999830658940584,-20.206665166073012
7.808,0.9999833534463433,-20.478069803651216
7.816,0.9999836413036,-20.749475100604474
7.824,0.9999839293741871,-21.020880047870993
7.832,0.9999842175670196,-21.292283637040665
7.84,0.9999845057915934,-21.563684860392787
7.848,0.99998479395801,-21.83508271093384
7.856,0.9999850819770019,-22.1064761824352
7.864,0.9999853697599538,-22.377864269470695
7.872,0.9999856572189291,-22.649245967454288
7.88,0.999985944266691,-22.92062027267749
7.888,0.9999862308167254,-23.191986182346916
7.896,0.9999865167832648,-23.463342694621584
7.904,0.9999868020813084,-23.734688808650315
7.912,0.9999870866266451,-24.006023524608914
7.92,0.9999873703358751,-24.277345843737358
7.928,0.9999876531264293,-24.548654768376924
7.936,0.9999879349165912,-24.81994930200715
7.944,0.9999882156255165,-25.091228449282777
7.952,0.9999884951732543,-25.362491216070588
7.96,0.9999887734807635,-25.63373660948616
7.968,0.9999890504699355,-25.904963637930482
7.976,0.9999893260636108,-26.176171311126527
7.984,0.9999896001855979,-26.44735864015571
7.992,0.9999898727606911,-26.7185246374942
8.0,0.9999901437146884,-26.989668317049215
8.008,0.9999904129744084,-27.260788694195053
8.016,0.9999906804677068,-27.53188478580934
8.024000000000001,0.9999909461234943,-27.802955610308555
8.032,0.999991209871751,-28.07400018768407
8.04,0.9999914716435425,-28.345017539537885
8.048,0.9999917313710358,-28.616006689118016
8.056000000000001,0.9999919889875137,-28.886966661353824
8.064,0.9999922444273891,-29.157896482891424
8.072,0.9999924976262198,-29.428795182128898
8.08,0.9999927485207215,-29.699661789251234
8.088000000000001,0.9999929970487819,-29.970495336265046
8.096,0.9999932431494724,-30.241294857033463
8.104,0.9999934867630623,-30.512059387310764
8.112,0.9999937278310296,-30.782787964776826
8.120000000000001,0.9999939662960737,-31.05347962907111
8.128,0.9999942021021263,-31.32413342182709
8.136,0.9999944351943617,-31.594748386706243
8.144,0.999994665519209,-31.865323569431837
8.152000000000001,0.9999948930243616,-32.13585801782241
8.16,0.9999951176587865,-32.4063507818254
8.168,0.9999953393727334,-32.67680091355067
8.176,0.9999955581177461,-32.947207467303436
8.184000000000001,0.9999957738466682,-33.21756949961726
8.192,0.9999959865136526,-33.48788606928694
8.2,0.99999619607417,-33.758156237401316
8.208,0.9999964024850152,-34.028379067375546
8.216000000000001,0.9999966057043153,-34.29855362498336
8.224,0.9999968056915354,-34.56867897838929
8.232,0.9999970024074856,-34.838754198180645
8.24,0.999997195814326,-35.10877835739918
8.248000000000001,0.999997385875574,-35.37875053157253
8.256,0.9999975725561071,-35.648669798745665
8.264,0.9999977558221693,-35.9185352395122
8.272,0.9999979356413757,-36.18834593704522
8.280000000000001,0.999998111982715,-36.45810097712794
8.288,0.9999982848165545,-36.72779944818436
8.296,0.9999984541146425,-36.99744044130984
8.304,0.9999986198501117,-37.267023050301056
8.312,0.9999987819974814,-37.53654637168579
8.32,0.9999989405326595,-37.80600950475316
8.328,0.9999990954329443,-38.07541155158258
8.336,0.9999992466770269,-38.344751617073634
8.344,0.9999993942449895,-38.614028808974695
8.352,0.9999995381183094,-38.883242237912285
8.36,0.9999996782798571,-39.15239101741929
8.368,0.999999814713896,-39.42147426396384
8.376,0.9999999474060842,-39.69049109697715
8.384,1.0,-39.95944063888193
8.392,1.0,-40.228322015119744
8.4,1.0,-40.497134354179
8.408,0.9999999999999999,-40.76587678762188
8.416,1.0,-41.03454845011184
8.424,1.0,-41.30314847943995
8.432,0.9999999999999999,-41.57167601655221
8.44,0.9999999999999999,-41.84013020557523
8.448,0.9999999999999999,-42.10851019384305
8.456,1.0,-42.3768151319225
8.464,0.9999999999999999,-42.645044173639334
8.472,1.0,-42.91319647610331
8.48,1.0,-43.181271199733764
8.488,0.9999999999999999,-43.449267508284116
8.496,1.0,-43.71718456886712
8.504,1.0,-43.98502155197879
8.512,1.0,-44.25277763152308
8.52,1.0,-44.52045198483548
8.528,1.0,-44.78804379270713
8.536,1.0,-45.0555522394078
8.544,0.9999999999999999,-45.32297651270971
8.552,1.0,-45.590315803909846
8.56,1.0,-45.85756930785329
8.568,0.9999999999999999,-46.12473622295518
8.576,0.9999999999999999,-46.391815751223305
8.584,0.9999999999999999,-46.658807098279695
8.592,1.0,-46.925709473382696
8.6,1.0,-47.192522089447955
8.608,0.9999999999999999,-47.45924416307009
8.616,1.0,-47.7258749145431
8.624,0.9999999999999999,-47.99241356788148
8.632,1.0,-48.25885935084016
8.64,0.9999999999999999,-48.52521149493515
8.648,1.0,-48.79146923546279
8.656,1.0000000000000002,-49.05763181152002
8.664,0.9999999999999999,-49.32369846602304
8.672,0.9999999999999999,-49.58966844572704
8.68,0.9999999999999999,-49.85554100124442
8.688,0.9999999999999999,-50.12131538706383
8.696,0.9999999999999999,-50.38699086156803
8.704,1.0,-50.65256668705227
8.712,1.0,-50.918042129741636
8.72,1.0,-51.18341645980903
8.728,1.0,-51.448688951391794
8.736,1.0,-51.71385888260924
8.744,1.0,-51.978925535578774
8.752,0.9999999999999999,-52.24388819643284
8.76,1.0000000000000002,-52.508746155334535
8.768,0.9999999999999999,-52.773498706493925
8.776,1.0,-53.038145148183304
8.784,0.9999999999999999,-53.302684782752856
8.792,0.9999999999999999,-53.567116916645304
8.8,1.0,-53.831440860411234
8.808,1.0,-54.09565592872301
8.815999999999999,0.9999999999999999,-54.359761440389654
8.824,1.0,-54.62375671837041
8.832,1.0,-54.88764108978858
8.84,1.0,-55.15141388594495
8.847999999999999,0.9999999999999999,-55.415074442331154
8.856,1.0,-55.67862209864243
8.864,1.0,-55.94205619879027
8.872,1.0,-56.20537609091474
8.879999999999999,1.0000000000000002,-56.4685811273969
8.888,1.0000000000000002,-56.73167066487038
8.896,1.0,-56.994644064232965
8.904,0.9999999999999999,-57.25750069065798
8.911999999999999,0.9999999999999999,-57.52023991360545
8.92,0.9999999999999999,-57.78286110683282
8.928,1.0,-58.045363648405285
8.936,0.9999999999999999,-58.307746920706236
8.943999999999999,1.0,-58.57001031044736
8.952,1.0,-58.832153208678236
8.96,1.0,-59.09417501079569
8.968,1.0,-59.35607511655317
8.975999999999999,0.9999999999999999,-59.61785293006973
8.984,0.9999999652594547,-59.87950785983866
8.992,0.9999998677361952,-60.1410393187358
9.0,0.9999997690714028,-60.402446724027776
9.008,0.999999669333008,-60.66372949738008
9.016,0.9999995685893726,-60.92488706486461
9.024000000000001,0.9999994669092699,-61.18591885696687
9.032,0.9999993643618659,-61.44682430859335
9.04,0.999999261016699,-61.70760285907843
9.048,0.999999156943659,-61.96825395219093
9.056000000000001,0.9999990522129706,-62.22877703614037
9.064,0.9999989468951694,-62.48917156358324
9.072,0.9999988410610847,-62.749436991628976
9.08,0.9999987347818187,-63.00957278184538
9.088000000000001,0.9999986281287259,-63.269578400264045
9.096,0.9999985211733936,-63.529453317385496
9.104,0.9999984139876217,-63.78919700818416
9.112,0.9999983066434021,-64.04880895211295
9.120000000000001,0.999998199212899,-64.30828863310754
9.128,0.9999980917684282,-64.56763553959053
9.136,0.9999979843824371,-64.82684916447559
9.144,0.9999978771274844,-65.08592900517088
9.152000000000001,0.9999977700762198,-65.3448745635825
9.16,0.9999976633013634,-65.6036853461176
9.168,0.9999975568756855,-65.86236086368761
9.176,0.9999974508719867,-66.12090063171068
9.184000000000001,0.9999973453630776,-66.3793041701142
9.192,0.9999972404217575,-66.63757100333694
9.2,0.9999971361207949,-66.89570066033136
9.208,0.9999970325329078,-67.15369267456514
9.216000000000001,0.9999969297307415,-67.41154658402262
9.224,0.9999968277868512,-67.66926193120632
9.232,0.9999967267736787,-67.92683826313795
9.24,0.9999966267635345,-68.18427513135931
9.248000000000001,0.9999965278285765,-68.44157209193277
9.256,0.9999964300407909,-68.69872870544172
9.264,0.9999963334719708,-68.9557445369909
9.272,0.999996238193697,-69.21261915620633
9.280000000000001,0.9999961442773183,-69.4693521372348
9.288,0.9999960517939309,-69.72594305874354
9.296,0.9999959608143587,-69.98239150391974
9.304,0.9999958714091336,-70.23869706046943
9.312000000000001,0.9999957836484762,-70.49485932061626
9.32,0.9999956976022755,-70.75087788110031
9.328,0.9999956133400695,-71.00675234317659
9.336,0.9999955309310258,-71.26248231261327
9.344,0.9999954504439224,-71.5180673996895
9.352,0.9999953719471272,-71.7735072191936
9.36,0.9999952955085807,-72.02880139042028
9.368,0.9999952211957746,-72.28394953716857
9.376,0.9999951490757347,-72.53895128773844
9.384,0.9999950792150009,-72.79380627492844
9.392,0.9999950116796079,-73.04851413603203
9.4,0.999994946535068,-73.30307451283457
9.408,0.9999948838463505,-73.55748705160941
9.416,0.9999948236778646,-73.81175140311461
9.424,0.9999947660934401,-74.06586722258841
9.432,0.9999947111563098,-74.31983416974568
9.44,0.9999946589290909,-74.57365190877303
9.448,0.9999946094737665,-74.82732010832491
9.456,0.9999945628516685,-75.08083844151828
9.464,0.9999945191234596,-75.33420658592831
9.472,0.9999944783491146,-75.58742422358287
9.48,0.9999944405879047,-75.84049104095764
9.488,0.9999944058983784,-76.09340672897041
9.496,0.9999943743383447,-76.34617098297575
9.504,0.999994345964857,-76.59878350275902
9.512,0.999994320834195,-76.85124399253068
9.52,0.9999942990018478,-77.10355216091988
9.528,0.9999942805224983,-77.35570772096854
9.536,0.9999942654500058,-77.60771039012454
9.544,0.9999942538373899,-77.85955989023552
9.552,0.9999942457368148,-78.11125594754168
9.56,0.9999942411995725,-78.36279829266931
9.568,0.9999942402760678,-78.61418666062325
9.576,0.9999942430158016,-78.86542079078005
9.584,0.999994249467357,-79.11650042688021
9.592,0.9999942596783825,-79.36742531702102
9.6,0.9999942736955773,-79.61819521364839
9.608,0.9999942915646775,-79.86880987354948
9.616,0.999994313330439,-80.11926905784426
9.624,0.9999943390366256,-80.36957253197775
9.632,0.9999943687259931,-80.61972006571133
9.64,0.9999944024402748,-80.86971143311474
9.648,0.9999944402201697,-81.11954641255703
9.656,0.9999944821053256,-81.36922478669831
9.664,0.9999945281343282,-81.61874634248046
9.672,0.9999945783446863,-81.86811087111855
9.68,0.9999946327728195,-82.11731816809132
9.688,0.9999946914540446,-82.36636803313233
9.696,0.999994754422563,-82.61526027022013
9.704,0.9999948217114486,-82.86399468756927
