freq,mag,phase
6.0,1.0,-21.062229227123776
6.008,1.0,-21.34476692212525
6.016,0.9999999999999998,-21.627315108743545
6.024,0.9999999999999999,-21.909873578778345
6.032,1.0,-22.192442124163207
6.04,1.0,-22.475020536968522
6.048,1.0,-22.75760860940452
6.056,0.9999999999999999,-23.040206133824306
6.064,0.9999999999999999,-23.322812902726778
6.072,1.0,-23.605428708759806
6.08,0.9999999999999999,-23.88805334472317
6.088,1.0,-24.170686603571657
6.096,0.9999999999999999,-24.453328278418137
6.104,0.9999999999999999,-24.735978162536636
6.112,1.0,-25.018636049365448
6.12,1.0,-25.301301732510183
6.128,1.0,-25.583975005746986
6.136,1.0,-25.866655663025604
6.144,0.9999999999999999,-26.149343498472497
6.152,1.0,-26.43203830639406
6.16,0.9999999868811826,-26.714739881279765
6.168,0.9999998319314994,-26.997448017805322
6.176,0.999999670111401,-27.280162510835844
6.184,0.9999995016970088,-27.5628831554291
6.192,0.9999993269596846,-27.845609746838683
6.2,0.9999991461660763,-28.1283420805172
6.208,0.9999989595781594,-28.411079952119568
6.216,0.9999987674532804,-28.69382315750618
6.224,0.9999985700442005,-28.976571492746164
6.232,0.9999983675991381,-29.2593247541207
6.24,0.9999981603618117,-29.54208273812618
6.248,0.9999979485714826,-29.824845241477533
6.256,0.9999977324629982,-30.10761206111152
6.264,0.999997512266834,-30.39038299418999
6.272,0.9999972882091362,-30.673157838103165
6.28,0.9999970605117645,-30.955936390473003
6.288,0.9999968293923336,-31.238718449156433
6.296,0.9999965950642571,-31.521503812248746
6.304,0.999996357736787,-31.804292278086823
6.312,0.999996117615058,-32.0870836452526
6.32,0.9999958749001289,-32.369877712576304
6.328,0.9999956297890229,-32.652674279139845
6.336,0.9999953824747715,-32.93547314428013
6.344,0.9999951331464545,-33.21827410759248
6.352,0.9999948819892418,-33.50107696893395
6.36,0.9999946291844344,-33.783881528426726
6.368,0.9999943749095068,-34.0666875864615
6.376,0.9999941193381463,-34.34949494370079
6.384,0.9999938626402949,-34.632303401082474
6.392,0.9999936049821903,-34.915112759822996
6.4,0.9999933465264059,-35.19792282142094
6.408,0.9999930874318919,-35.48073338766029
6.416,0.9999928278540146,-35.763544260613926
6.424,0.9999925679445981,-36.04635524264701
6.432,0.9999923078519639,-36.32916613642041
6.44,0.9999920477209697,-36.61197674489408
6.448,0.9999917876930511,-36.89478687133048
6.456,0.9999915279062592,-37.17759631929816
6.464,0.9999912684953024,-37.46040489267493
6.472,0.9999910095915835,-37.743212395651454
6.48,0.9999907513232401,-38.02601863273474
6.4879999999999995,0.9999904938151841,-38.30882340875134
6.496,0.9999902371891395,-38.59162652885115
6.504,0.9999899815636805,-38.8744277985104
6.5120000000000005,0.9999897270542729,-39.15722702353563
6.52,0.9999894737733095,-39.44002401006653
6.5280000000000005,0.9999892218301497,-39.722818564580024
6.536,0.9999889713311572,-40.005610493893144
6.5440000000000005,0.9999887223797386,-40.288399605166966
6.552,0.9999884750763799,-40.571185705909585
6.5600000000000005,0.999988229518685,-40.853968603980114
6.568,0.9999879858014127,-41.13674810759155
6.5760000000000005,0.9999877440165136,-41.419524025314765
6.584,0.999987504253168,-41.702296166081496
6.592,0.999987266597822,-41.98506433918823
6.6,0.999987031134224,-42.26782835429925
6.608,0.9999867979434619,-42.550588021450395
6.616,0.9999865671039989,-42.833343151052375
6.624,0.9999863386917096,-43.11609355389418
6.632,0.999986112779916,-43.39883904114668
6.64,0.9999858894394231,-43.68157942436596
6.648,0.9999856687385547,-43.96431451549676
6.656,0.9999854507431887,-44.24704412687594
6.664,0.9999852355167919,-44.52976807123601
6.672,0.9999850231204556,-44.81248616170846
6.68,0.9999848136129292,-45.095198211827245
6.688,0.9999846070506567,-45.37790403553218
6.696,0.9999844034878084,-45.660603447172456
6.704,0.9999842029763175,-45.94329626150996
6.712,0.9999840055659135,-46.225982293722836
6.72,0.9999838113041541,-46.50866135940882
6.728,0.9999836202364617,-46.79133327458864
6.736,0.9999834324061547,-47.07399785570954
6.744,0.9999832478544809,-47.356654919648584
6.752,0.9999830666206513,-47.63930428371611
6.76,0.9999828887418717,-47.92194576565914
6.768,0.9999827142533765,-48.20457918366479
6.776,0.99998254318846,-48.487204356363655
6.784,0.9999823755785088,-48.76982110283318
6.792,0.9999822114530336,-49.05242924260106
6.8,0.9999820508397015,-49.335028595648645
6.808,0.9999818937643661,-49.61761898241428
6.816,0.9999817402511005,-49.9002002237967
6.824,0.999981590322227,-50.182772141158395
6.832,0.9999814439983485,-50.46533455632893
6.84,0.9999813012983787,-50.74788729160837
6.848,0.9999811622395728,-51.030430169770504
6.856,0.9999810268375582,-51.312963014066334
6.864,0.9999808951063628,-51.59548564822731
6.872,0.9999807670584464,-51.87799789646867
6.88,0.9999806427047295,-52.16049958349277
6.888,0.9999805220546224,-52.44299053449242
6.896,0.9999804051160546,-52.725470575154105
6.904,0.9999802918955036,-53.0079395316614
6.912,0.999980182398023,-53.29039723069813
6.92,0.9999800766272718,-53.57284349945177
6.928,0.9999799745855414,-53.855278165616596
6.936,0.9999798762737852,-54.137701057397074
6.944,0.9999797816916435,-54.42011200351102
6.952,0.9999796908374747,-54.70251083319286
6.96,0.9999796037083791,-54.98489737619691
6.968,0.9999795203002283,-55.267271462800586
6.976,0.9999794406076903,-55.5496329238076
6.984,0.9999793646242572,-55.831981590551145
6.992,0.9999792923422711,-56.114317294897184
7.0,0.9999792237529506,-56.396639869247565
7.008,0.9999791588464152,-56.678949146543246
7.016,0.9999790976117133,-56.96124496026736
7.024,0.9999790400368458,-57.24352714444855
7.032,0.9999789861087918,-57.52579553366397
7.04,0.9999789358135334,-57.80804996304246
7.048,0.9999788891360809,-58.09029026826769
7.056,0.9999788460604967,-58.37251628558131
7.064,0.99997880656992,-58.65472785178596
7.072,0.9999787706465899,-58.93692480424846
7.08,0.9999787382718711,-59.219106980902794
7.088,0.9999787094262752,-59.5012742202533
7.096,0.9999786840894854,-59.78342636137758
7.104,0.9999786622403791,-60.06556324392971
7.112,0.9999786438570508,-60.34768470814311
7.12,0.9999786289168352,-60.629790594833715
7.128,0.9999786173963284,-60.91188074540287
7.136,0.9999786092714111,-61.19395500184036
7.144,0.9999786045172708,-61.47601320672743
7.152,0.9999786031084217,-61.75805520323974
7.16,0.9999786050187285,-62.040080835150235
7.168,0.9999786102214253,-62.32208994683226
7.176,0.9999786186891386,-62.604082383262295
7.184,0.9999786303939069,-62.88605799002305
7.192,0.999978645307201,-63.16801661330623
7.2,0.9999786633999455,-63.449958099915506
7.208,0.9999786846425373,-63.73188229726938
7.216,0.999978709004867,-64.01378905340397
7.224,0.9999787364563367,-64.29567821697597
7.232,0.9999787669658814,-64.57754963726545
7.24,0.9999788005019864,-64.85940316417856
7.248,0.9999788370327067,-65.14123864825049
7.256,0.9999788765256865,-65.42305594064818
7.264,0.999978918948176,-65.70485489317315
7.272,0.9999789642670514,-65.9866353582641
7.28,0.9999790124488311,-66.26839718899984
7.288,0.9999790634596949,-66.55014023910192
7.296,0.9999791172655008,-66.8318643629374
7.304,0.9999791738318019,-67.11356941552144
7.312,0.9999792331238647,-67.39525525252009
7.32,0.9999792951066849,-67.67692173025289
7.328,0.9999793597450035,-67.95856870569553
7.336,0.999979427003325,-68.2401960364825
7.344,0.999979496845932,-68.52180358090972
7.352,0.9999795692369009,-68.80339119793705
7.36,0.999979644140119,-69.08495874719095
7.368,0.9999797215192991,-69.3665060889671
7.376,0.9999798013379947,-69.64803308423276
7.384,0.9999798835596151,-69.92953959462947
7.392,0.9999799681474398,-70.21102548247553
7.4,0.9999800550646347,-70.49249061076843
7.4079999999999995,0.9999801442742638,-70.77393484318739
7.416,0.9999802357393057,-71.05535804409591
7.4239999999999995,0.999980329422666,-71.33676007854388
7.432,0.9999804252871923,-71.6181408122705
7.4399999999999995,0.999980523295686,-71.89950011170619
7.448,0.9999806234109169,-72.18083784397548
7.4559999999999995,0.9999807255956356,-72.46215387689881
7.464,0.9999808298125865,-72.74344807899553
7.4719999999999995,0.9999809360245207,-73.02472031948555
7.48,0.9999810441942075,-73.30597046829239
7.4879999999999995,0.9999811542844478,-73.58719839604474
7.496,0.9999812662580846,-73.8684039740794
7.504,0.999981380078016,-74.149587074443
7.5120000000000005,0.9999814957072056,-74.43074756989473
7.52,0.9999816131086956,-74.71188533390809
7.5280000000000005,0.9999817322456154,-74.99300024067352
7.536,0.999981853081195,-75.27409216510024
7.5440000000000005,0.9999819755787737,-75.55516098281875
7.552,0.9999820997018116,-75.83620657018263
7.5600000000000005,0.9999822254138998,-76.117228804271
7.568,0.9999823526787707,-76.39822756289031
7.5760000000000005,0.999982481460306,-76.6792027245768
7.584,0.9999826117225501,-76.96015416859815
7.5920000000000005,0.9999827434297152,-77.24108177495596
7.6,0.9999828765461939,-77.52198542438734
7.6080000000000005,0.9999830110365667,-77.80286499836741
7.616,0.9999831468656112,-78.08372037911079
7.6240000000000006,0.9999832839983106,-78.36455144957407
7.632,0.9999834223998624,-78.64535809345722
7.640000000000001,0.9999835620356862,-78.92614019520609
7.648,0.9999837028714326,-79.2068976400138
7.656000000000001,0.9999838448729902,-79.48763031382315
7.664,0.9999839880064938,-79.76833810332789
7.672,0.9999841322383322,-80.0490208959752
7.68,0.9999842775351542,-80.32967857996702
7.688,0.999984423863877,-80.61031104426216
7.696,0.9999845711916924,-80.89091817857793
7.704,0.9999847194860746,-81.17149987339198
7.712,0.9999848687147846,-81.45205601994407
7.72,0.9999850188458794,-81.7325865102377
7.728,0.9999851698477156,-82.01309123704193
7.736,0.9999853216889567,-82.29357009389297
7.744,0.9999854743385792,-82.5740229750959
7.752,0.999985627765877,-82.85444977572632
7.76,0.9999857819404683,-83.13485039163193
7.768,0.9999859368322997,-83.41522471943415
7.776,0.9999860924116519,-83.6955726565297
7.784,0.9999862486491442,-83.97589410109218
7.792,0.9999864055157403,-84.25618895207356
7.8,0.9999865629827516,-84.53645710920573
7.808,0.9999867210218422,-84.81669847300199
7.816,0.999986879605033,-85.09691294475851
7.824,0.9999870387047061,-85.37710042655583
7.832,0.9999871982936083,-85.6572608212602
7.84,0.9999873583448553,-85.93739403252503
7.848,0.9999875188319347,-86.21749996479235
7.856,0.9999876797287096,-86.49757852329407
7.864,0.9999878410094225,-86.77762961405332
7.872,0.9999880026486974,-87.05765314388591
7.88,0.9999881646215433,-87.33764902040146
7.888,0.999988326903357,-87.61761715200477
7.896,0.9999884894699254,-87.89755744789704
7.904,0.9999886522974283,-88.17746981807718
7.912,0.9999888153624406,-88.45735417334292
7.92,0.9999889786419341,-88.73721042529202
7.928,0.999989142113281,-89.0170384863235
7.936,0.9999893057542529,-89.29683826963877
7.944,0.9999894695430255,-89.57660968924266
7.952,0.9999896334581784,-89.85635265994468
7.96,0.9999897974786975,-90.13606709735993
7.968,0.9999899615839751,-90.4157529179103
7.976,0.9999901257538127,-90.69541003882546
7.984,0.9999902899684202,-90.97503837814381
7.992,0.9999904542084183,-91.25463785471355
8.0,0.9999906184548377,-91.53420838819363
8.008,0.9999907826891219,-91.81374989905468
8.016,0.9999909468931252,-92.09326230858004
8.024000000000001,0.9999911110491143,-92.3727455388664
8.032,0.9999912751397692,-92.65219951282491
8.04,0.9999914391481809,-92.93162415418203
8.048,0.9999916030578544,-93.2110193874804
8.056000000000001,0.9999917668527063,-93.49038513807939
8.064,0.9999919305170648,-93.76972133215607
8.072,0.99999209403567,-94.04902789670611
8.08,0.9999922573936729,-94.32830475954444
8.088000000000001,0.9999924205766345,-94.60755184930578
8.096,0.999992583570526,-94.88676909544549
8.104,0.9999927463617266,-95.1659564282404
8.112,0.9999929089370226,-95.44511377878933
8.120000000000001,0.9999930712836075,-95.72424107901358
8.128,0.9999932333890797,-96.00333826165772
8.136,0.9999933952414413,-96.28240526029025
8.144,0.999993556829096,-96.56144200930407
8.152000000000001,0.9999937181408491,-96.84044844391693
8.16,0.9999938791659047,-97.11942450017202
8.168,0.9999940398938638,-97.39837011493867
8.176,0.9999942003147229,-97.67728522591263
8.184000000000001,0.9999943604188715,-97.95616977161646
8.192,0.9999945201970903,-98.23502369140009
8.2,0.9999946796405494,-98.51384692544131
8.208,0.9999948387408052,-98.79263941474609
8.216000000000001,0.9999949974897985,-99.07140110114881
8.224,0.9999951558798512,-99.35013192731273
8.232,0.9999953139036659,-99.62883183673044
8.24,0.9999954715543197,-99.90750077372401
8.248000000000001,0.9999956288252656,-100.18613868344526
8.256,0.9999957857103257,-100.46474551187598
8.264,0.9999959422036901,-100.74332120582841
8.272,0.9999960982999159,-101.0218657129453
8.280000000000001,0.9999962539939193,-101.30037898169998
8.288,0.9999964092809769,-101.57886096139669
8.296,0.9999965641567196,-101.85731160217072
8.304,0.9999967186171314,-102.13573085498864
8.312,0.9999968726585436,-102.41411867164803
8.32,0.9999970262776333,-102.69247500477806
8.328,0.9999971794714188,-102.9707998078391
8.336,0.9999973322372566,-103.2490930351232
8.344,0.999997484572837,-103.52735464175366
8.352,0.99999763647618,-103.80558458368552
8.36,0.9999977879456334,-104.08378281770493
8.368,0.9999979389798662,-104.36194930142982
8.376,0.999998089577867,-104.64008399330912
8.384,0.9999982397389376,-104.91818685262334
8.392,0.9999983894626912,-105.1962578394838
8.4,0.9999985387490472,-105.4742969148332
8.408,0.999998687598226,-105.75230404044476
8.416,0.999998836010746,-106.0302791789227
8.424,0.9999989839874198,-106.30822229370145
8.432,0.9999991315293469,-106.58613334904601
8.44,0.9999992786379133,-106.86401231005114
8.448,0.9999994253147836,-107.14185914264169
8.456,0.9999995715618978,-107.41967381357176
8.464,0.9999997173814672,-107.6974562904249
8.472,0.9999998627759688,-107.9752065416133
8.48,0.9999999999999999,-108.25292453637799
8.488,0.9999999999999999,-108.53061024478791
8.496,1.0,-108.80826363774005
8.504,1.0,-109.08588468695861
8.512,1.0,-109.36347336499496
8.52,0.9999999999999999,-109.64102964522678
8.528,1.0,-109.91855350185811
8.536,0.9999999999999999,-110.19604490991829
8.544,1.0,-110.47350384526197
8.552,0.9999999999999999,-110.75093028456816
8.56,1.0,-111.02832420534006
8.568,1.0,-111.30568558590413
8.576,1.0,-111.58301440540988
8.584,0.9999999999999999,-111.86031064382888
8.592,1.0,-112.13757428195447
8.6,1.0,-112.41480530140079
8.608,1.0,-112.69200368460251
8.616,1.0,-112.96916941481366
8.624,1.0,-113.24630247610742
8.632,0.9999999999999999,-113.52340285337493
8.64,1.0,-113.800470532325
8.648,1.0,-114.07750549948283
8.656,1.0,-114.35450774218982
8.664,0.9999999999999999,-114.63147724860211
8.672,1.0,-114.90841400769044
8.68,1.0,-115.18531800923864
8.688,1.0,-115.46218924384333
8.696,1.0,-115.73902770291258
8.704,1.0,-116.01583337866546
8.712,1.0,-116.29260626413065
8.72,1.0,-116.56934635314596
8.728,1.0,-116.84605364035687
8.736,0.9999999999999999,-117.12272812121611
8.744,0.9999999999999999,-117.39936979198214
8.752,1.0,-117.67597864971856
8.76,0.9999999999999999,-117.95255469229272
8.768,0.9999999999999998,-118.22909791837507
8.776,1.0,-118.50560832743759
8.784,1.0,-118.7820859197532
8.792,1.0000000000000002,-119.05853069639424
8.8,1.0,-119.33494265923171
8.808,0.9999999999999999,-119.61132181093379
8.815999999999999,1.0,-119.88766815496489
8.824,1.0,-120.16398169558451
8.832,1.0,-120.44026243784583
8.84,1.0,-120.71651038759454
8.847999999999999,1.0,-120.99272555146794
8.856,1.0,-121.26890793689326
8.864,1.0000000000000002,-121.54505755208658
8.872,1.0,-121.82117440605145
8.879999999999999,1.0,-122.09725850857785
8.888,0.9999999999999999,-122.3733098702406
8.896,1.0,-122.64932850239812
8.904,0.9999999999999999,-122.92531441719092
8.911999999999999,1.0000000000000002,-123.20126762754063
8.92,0.9999999999999999,-123.47718814714827
8.928,0.9999999999999999,-123.75307599049283
8.936,1.0,-124.02893117282999
8.943999999999999,1.0,-124.30475371019071
8.952,1.0,-124.58054361937974
8.96,1.0,-124.85630091797405
8.968,0.9999999999999999,-125.13202562432127
8.975999999999999,1.0,-125.4077177575386
8.984,1.0,-125.68337733751093
8.992,0.9999999999999999,-125.95900438488931
9.0,0.9999999999999998,-126.2345989210894
9.008,1.0,-126.51016096829022
9.016,0.9999999999999999,-126.78569054943223
9.024000000000001,1.0,-127.06118768821577
9.032,1.0,-127.33665240909944
9.04,1.0,-127.61208473729873
9.048,0.9999999999999999,-127.8874846987841
9.056000000000001,1.0,-128.1628523202793
9.064,0.9999999999999999,-128.4381876292598
9.072,1.0,-128.71349065395114
9.08,1.0,-128.98876142332728
9.088000000000001,1.0,-129.2639999671085
9.096,1.0,-129.53920631576005
9.104,1.0,-129.8143805004903
9.112,1.0,-130.08952255324905
9.120000000000001,1.0,-130.3646325067254
9.128,0.9999999999999999,-130.63971039434628
9.136,1.0,-130.91475625027465
9.144,0.9999999999999999,-131.18977010940753
9.152000000000001,1.0,-131.46475200737424
9.16,0.9999999999999999,-131.73970198053445
9.168,0.9999999999999999,-132.01462006597637
9.176,1.0,-132.28950630151505
9.184000000000001,0.9999999999999999,-132.56436072569014
9.192,0.9999999999999999,-132.83918337776413
9.2,0.9999999999999999,-133.11397429772063
9.208,1.0,-133.3887335262622
9.216000000000001,1.0,-133.66346110480833
9.224,1.0,-133.9381570754937
9.232,1.0,-134.21282148116612
9.24,0.9999999999999999,-134.4874543653846
9.248000000000001,0.9999999999999998,-134.76205577241709
9.256,1.0,-135.03662574723867
9.264,0.9999999999999999,-135.3111643355297
9.272,1.0,-135.58567158367345
9.280000000000001,1.0,-135.86014753875415
9.288,0.9999999999999999,-136.13459224855487
9.296,1.0,-136.40900576155573
9.304,0.9999999999999999,-136.68338812693153
9.312000000000001,1.0000000000000002,-136.9577393945496
9.32,0.9999999999999999,-137.2320596149678
9.328,0.9999999999999999,-137.50634883943252
9.336,1.0,-137.7806071198764
9.344,1.0,-138.05483450891597
9.352,1.0,-138.32903105985
9.36,1.0,-138.60319682665673
9.368,1.0,-138.87733186399228
9.376,0.9999999999999999,-139.15143622718782
9.384,0.9999999999999999,-139.42550997224794
9.392,1.0000000000000002,-139.699553155848
9.4,1.0,-139.97356583533227
9.408,0.9999999999999999,-140.2475480687112
9.416,1.0,-140.52149991465976
9.424,1.0,-140.7954214325146
9.432,1.0,-141.06931268227223
9.44,1.0,-141.3431737245863
9.448,1.0,-141.6170046207659
9.456,1.0,-141.89080543277248
9.464,1.0,-142.1645762232183
9.472,1.0,-142.43831705536337
9.48,0.9999999999999999,-142.71202799311385
9.488,0.9999999999999999,-142.98570910101904
9.496,1.0,-143.25936044426942
9.504,1.0,-143.53298208869415
9.512,1.0,-143.80657410075875
9.52,1.0000000000000002,-144.0801365475625
9.528,0.9999999999999999,-144.3536694968364
9.536,0.9999999999999999,-144.6271730169404
9.544,1.0,-144.90064717686124
9.552,1.0,-145.1740920462098
9.56,1.0,-145.447507695219
9.568,1.0,-145.7208941947408
9.576,1.0000000000000002,-145.99425161624444
9.584,0.9999999999999999,-146.26758003181325
9.592,0.9999999999999999,-146.54087951414292
9.6,1.0,-146.81415013653822
9.608,0.9999999999999999,-147.0873919729112
9.616,1.0,-147.36060509777832
9.624,0.9999999999999999,-147.633789586258
9.632,1.0,-147.90694551406813
9.64,1.0,-148.1800729575236
9.648,1.0,-148.45317199353357
9.656,1.0,-148.7262426995992
9.664,0.9999999999999999,-148.99928515381083
9.672,1.0,-149.27229943484565
9.68,1.0,-149.54528562196492
9.688,0.9999999999999999,-149.81824379501165
9.696,1.0,-150.09117403440763
9.704,1.0,-150.3640764211514
9.712,1.0,-150.63695103681493
9.72,1.0,-150.90979796354182
9.728,1.0,-151.18261728404389
9.736,0.9999999999999999,-151.45540908159927
9.744,1.0,-151.72817344004918
9.752,1.0000000000000002,-152.00091044379576
9.76,1.0,-152.27362017779907
9.768,0.9999999999999998,-152.54630272757473
9.776,0.9999999999999999,-152.81895817919093
9.784,1.0,-153.09158661926625
9.792,1.0,-153.36418813496633
9.8,1.0,-153.636762814002
9.808,1.0,-153.9093107446257
9.816,1.0,-154.18183201562968
9.824,0.9999999999999999,-154.45432671634248
9.832,1.0,-154.726794936627
9.84,0.9999999999999998,-154.99923676687703
