freq,mag,phase
6.0,0.999993203808749,-118.20493496598463
6.008,0.9999952559783879,-118.5929218798949
6.016,0.9999972425846577,-118.98056408781623
6.024,0.999999164775155,-119.36786255079278
6.032,1.0,-119.75481824626958
6.04,1.0,-120.14143216792654
6.048,1.0,-120.52770532551305
6.056,1.0,-120.91363874468313
6.064,1.0,-121.2992334668315
6.072,0.9999999999999999,-121.68449054892993
6.08,1.0,-122.06941106336458
6.088,0.9999999999999999,-122.45399609777385
6.096,0.9999999999999999,-122.83824675488705
6.104,1.0,-123.22216415236363
6.112,1.0,-123.60574942263344
6.12,1.0,-123.98900371273731
6.128,1.0,-124.37192818416884
6.136,1.0,-124.7545240127166
6.144,0.9999999999999999,-125.1367923883074
6.152,0.9999999999999999,-125.51873451485014
6.16,1.0,-125.90035161008056
6.168,1.0,-126.28164490540692
6.176,1.0,-126.66261564575625
6.184,1.0,-127.0432650894217
6.192,1.0,-127.42359450791066
6.2,1.0,-127.80360518579364
6.208,1.0,-128.18329842055405
6.216,1.0,-128.56267552243924
6.224,0.9999999999999999,-128.94173781431164
6.232,0.9999999999999999,-129.3204866315016
6.24,1.0,-129.69892332166063
6.248,0.9999999999999998,-130.07704924461592
6.256,0.9999999999999999,-130.45486577222528
6.264,1.0,-130.8323742882335
6.272,1.0,-131.2095761881295
6.28,1.0,-131.58647287900416
6.288,0.9999999999999999,-131.96306577940956
6.296,1.0,-132.33935631921864
6.304,1.0,-132.71534593948633
6.312,0.9999999999999999,-133.0910360923112
6.32,1.0,-133.4664282406985
6.328,1.0,-133.8415238584237
6.336,0.9999999999999999,-134.2163244298974
6.344,0.9999999999999998,-134.59083145003115
6.352,0.9999999999999999,-134.9650464241038
6.36,1.0,-135.33897086762966
6.368,1.0,-135.7126063062268
6.376,1.0,-136.08595427548704
6.384,1.0,-136.4590163208463
6.392,0.9999999999999999,-136.8317939974566
6.4,1.0,-137.2042888700584
6.408,0.9999999999999999,-137.57650251285435
6.416,0.9999999999999999,-137.948436509384
6.424,1.0,-138.32009245239956
6.432,0.9999999999999999,-138.69147194374207
6.44,1.0,-139.0625765942196
6.448,1.0,-139.43340802348553
6.456,0.9999999999999999,-139.80396785991834
6.464,1.0,-140.17425774050227
6.472,1.0,-140.54427931070876
6.48,0.9999999999999999,-140.9140342243794
6.4879999999999995,0.9999999999999999,-141.2835241436092
6.496,1.0,-141.65275073863174
6.504,1.0000000000000002,-142.0217156877041
6.5120000000000005,1.0,-142.39042067699415
6.52,1.0,-142.7588674004676
6.5280000000000005,0.9999999999999999,-143.12705755977728
6.536,1.0,-143.49499286415184
6.5440000000000005,1.0,-143.8626750302873
6.552,1.0,-144.23010578223767
6.5600000000000005,0.9999999999999999,-144.59728685130838
6.568,1.0,-144.96421997594905
6.5760000000000005,1.0,-145.3309069016486
6.584,0.9999999999999999,-145.69734938083005
6.592,1.0,-146.0635491727478
6.6,1.0,-146.42950804338426
6.608,1.0,-146.7952277653487
6.616,0.9999999999999999,-147.16071011777635
6.624,1.0,-147.5259568862287
6.632,1.0,-147.89096986259491
6.64,1.0,-148.25575084499377
6.648,0.9999999999999999,-148.62030163767693
6.656,1.0,-148.98462405093292
6.664,0.9999999999999999,-149.34871990099222
6.672,1.0,-149.7125910099331
6.68,0.9999999999999999,-150.07623920558837
6.688,1.0,-150.43966632145353
6.696,1.0,-150.80287419659493
6.704,0.9999999999999999,-151.1658646755597
6.712,0.9999999999999999,-151.52863960828626
6.72,1.0,-151.8912008500154
6.728,1.0,-152.25355026120295
6.736,1.0,-152.6156897074327
6.744,1.0,-152.9776210593305
6.752,1.0,-153.3393461924792
6.76,1.0,-153.7008669873346
6.768,1.0,-154.0621853291418
6.776,1.0000000000000002,-154.423303107853
6.784,1.0000000000000002,-154.78422221804576
6.792,1.0,-155.14494455884218
6.8,1.0,-155.50547203382914
6.808,1.0,-155.86580655097882
6.816,0.9999999999999999,-156.22595002257097
6.824,1.0,-156.58590436511494
6.832,1.0,-156.94567149927332
6.84,0.9999999999999999,-157.30525334978603
6.848,1.0,-157.66465184539524
6.856,1.0,-158.0238689187712
6.864,1.0,-158.38290650643876
6.872,0.9999999999999998,-158.74176654870467
6.88,1.0,-159.10045098958568
6.888,0.9999999999999999,-159.45896177673742
6.896,0.9999999999999999,-159.81730086138404
6.904,1.0000000000000002,-160.17547019824858
6.912,1.0,-160.53347174548404
6.92,1.0,-160.89130746460523
6.928,0.9999999999999999,-161.24897932042154
6.936,1.0,-161.60648928097007
6.944,1.0,-161.96383931744955
6.952,1.0,-162.32103140415543
6.96,1.0,-162.67806751841505
6.968,0.9999999999999999,-163.0349496405238
6.976,0.9999999999999999,-163.39167975368196
6.984,0.9999999999999999,-163.7482598439323
6.992,1.0,-164.10469190009812
7.0,0.9999999999999998,-164.4609779137221
7.008,1.0,-164.81711987900582
7.016,1.0,-165.17311979274987
7.024,1.0,-165.52897965429466
7.032,0.9999999999999999,-165.8847014654618
7.04,1.0,-166.24028723049616
7.048,0.9999999999999999,-166.59573895600843
7.056,0.9999999999999998,-166.95105865091855
7.064,0.9999999999999999,-167.3062483263994
7.072,0.9999999999999999,-167.66130999582143
7.08,0.9999996428863643,-168.01624567469747
7.088,0.9999992170079623,-168.37105738062863
7.096,0.9999987966023072,-168.72574713325025
7.104,0.9999983817617759,-169.0803169541788
7.112,0.9999979725751815,-169.43476886695925
7.12,0.999997569127823,-169.78910489701266
7.128,0.9999971715015376,-170.14332707158488
7.136,0.9999967797747491,-170.49743741969522
7.144,0.9999963940225193,-170.8514379720862
7.152,0.9999960143166001,-171.2053307611732
7.16,0.9999956407254789,-171.55911782099517
7.168,0.9999952733144294,-171.91280118716543
7.176,0.999994912145561,-172.2663828968234
7.184,0.9999945572778657,-172.61986498858613
7.192,0.9999942087672671,-172.97324950250115
7.2,0.9999938666666663,-173.32653847999913
7.208,0.9999935310259906,-173.67973396384735
7.216,0.9999932018922392,-174.03283799810328
7.224,0.9999928793095291,-174.38585262806916
7.232,0.9999925633191415,-174.7387799002464
7.24,0.9999922539595679,-175.09162186229094
7.248,0.9999919512665539,-175.44438056296858
7.256,0.999991655273144,-175.79705805211094
7.264,0.9999913660097265,-176.14965638057203
7.272,0.999991083504078,-176.50217760018464
7.28,0.9999908077814048,-176.85462376371785
7.288,0.9999905388643878,-177.20699692483427
7.296,0.9999902767732249,-177.55929913804812
7.304,0.9999900215256726,-177.91153245868318
7.312,0.9999897731370881,-178.26369894283184
7.32,0.9999895316204728,-178.6158006473137
7.328,0.9999892969865098,-178.96783962963497
7.336,0.9999890692436083,-179.31981794794814
7.344,0.9999888483979418,-179.67173766101197
7.352,0.9999886344534897,179.9763991718484
7.36,0.9999884274120749,179.62459049078072
7.368,0.9999882272734041,179.2728342354447
7.376,0.9999880340351088,178.92112834505113
7.384,0.9999878476927803,178.56947075840006
7.392,0.9999876682400096,178.21785941391929
7.4,0.9999874956684268,177.8662922497022
7.4079999999999995,0.9999873299677341,177.51476720354583
7.416,0.9999871711257484,177.1632822129877
7.4239999999999995,0.9999870191284326,176.81183521534382
7.432,0.9999868739599368,176.46042414774502
7.4399999999999995,0.9999867356026308,176.10904694717422
7.448,0.9999866040371409,175.75770155050253
7.4559999999999995,0.999986479242386,175.40638589452595
7.464,0.9999863611956106,175.0550979160012
7.4719999999999995,0.9999862498724216,174.7038355516818
7.48,0.9999861452468206,174.35259673835372
7.4879999999999995,0.9999860472912384,174.00137941287107
7.496,0.999985955976569,173.65018151219107
7.504,0.9999858712722025,173.29900097340985
7.5120000000000005,0.9999857931460567,172.94783573379678
7.52,0.9999857215646116,172.59668373083005
7.5280000000000005,0.9999856564929405,172.24554290223082
7.536,0.9999855978947408,171.89441118599825
7.5440000000000005,0.9999855457323671,171.54328652044356
7.552,0.9999854999668617,171.19216684422483
7.5600000000000005,0.9999854605579851,170.84105009638077
7.568,0.9999854274642467,170.4899342163652
7.5760000000000005,0.9999854006429344,170.13881714408078
7.584,0.9999853800501459,169.78769681991332
7.5920000000000005,0.999985365640816,169.43657118476503
7.6,0.9999853573687472,169.08543818008894
7.6080000000000005,0.999985355186638,168.73429574792203
7.616,0.999985359046112,168.38314183091939
7.6240000000000006,0.999985368897745,168.03197437238717
7.632,0.9999853846910939,167.6807913163168
7.640000000000001,0.9999854063747234,167.32959060741777
7.648,0.9999854338962341,166.97837019115187
7.656000000000001,0.9999854672022885,166.62712801376566
7.664,0.9999855062386387,166.27586202232487
7.672,0.9999855509501515,165.9245701647471
7.68,0.9999856012808352,165.5732503898355
7.688,0.9999856571738656,165.2219006473121
7.696,0.9999857185716103,164.87051888785135
7.704,0.9999857854156552,164.51910306311322
7.712,0.9999858576468276,164.1676511257771
7.72,0.9999859352052232,163.81616102957489
7.728,0.9999860180302274,163.4646307293248
7.736,0.9999861060605418,163.11305818096483
7.744,0.9999861992342061,162.76144134158633
7.752,0.9999862974886226,162.4097781694678
7.76,0.9999864007605788,162.05806662410862
7.768,0.999986508986271,161.70630466626287
7.776,0.9999866221013247,161.35449025797323
7.784,0.9999867400408198,161.00262136260505
7.792,0.9999868627393105,160.65069594488043
7.8,0.9999869901308476,160.2987119709125
7.808,0.9999871221490002,159.94666740823956
7.816,0.9999872587268772,159.59456022585974
7.824,0.9999873997971467,159.24238839426545
7.832,0.9999875452920592,158.8901498854781
7.84,0.999987695143465,158.53784267308305
7.848,0.9999878492828366,158.18546473226442
7.856,0.9999880076412883,157.8330140398403
7.864,0.9999881701495943,157.4804885742982
7.872,0.9999883367382106,157.12788631583032
7.88,0.9999885073372916,156.77520524636932
7.888,0.9999886818767103,156.42244334962402
7.896,0.9999888602860769,156.0695986111157
7.904,0.9999890424947571,155.716669018214
7.912,0.9999892284318896,155.3636525601734
7.92,0.9999894180264056,155.01054722817005
7.928,0.9999896112070441,154.65735101533835
7.936,0.9999898079023717,154.30406191680817
7.944,0.9999900080407977,153.95067792974206
7.952,0.9999902115505936,153.59719705337287
7.96,0.9999904183599072,153.24361728904137
7.968,0.9999906283967799,152.8899366402344
7.976,0.9999908415891643,152.53615311262305
7.984,0.9999910578649387,152.18226471410136
7.992,0.9999912771519234,151.82826945482478
8.0,0.9999914993778964,151.47416534724965
8.008,0.999991724470609,151.11995040617234
8.016,0.9999919523577998,150.76562264876873
8.024000000000001,0.9999921829672117,150.41118009463463
8.032,0.9999924162266044,150.05662076582567
8.04,0.9999926520637707,149.70194268689778
8.048,0.9999928904065496,149.34714388494822
8.056000000000001,0.9999931311828408,148.99222238965686
8.064,0.9999933743206189,148.6371762333276
8.072,0.9999936197479463,148.2820034509299
8.08,0.9999938673929879,147.92670208014144
8.088000000000001,0.9999941171840232,147.57127016139034
8.096,0.9999943690494597,147.21570573789836
8.104,0.9999946229178456,146.8600068557236
8.112,0.9999948787178837,146.50417156380448
8.120000000000001,0.9999951363784417,146.1481979140038
8.128,0.9999953958285667,145.7920839611528
8.136,0.9999956569974954,145.43582776309594
8.144,0.9999959198146674,145.079427380736
8.152000000000001,0.9999961842097366,144.7228808780799
8.16,0.9999964501125815,144.36618632228416
8.168,0.9999967174533182,144.00934178370147
8.176,0.9999969861623108,143.65234533592712
8.184000000000001,0.9999972561701823,143.29519505584665
8.192,0.9999975274078253,142.937889023683
8.2,0.9999977998064132,142.5804253230446
8.208,0.9999980732974096,142.2228020409736
8.216000000000001,0.9999983478125797,141.8650172679951
8.224,0.9999986232839995,141.50706909816645
8.232,0.9999988996440656,141.14895562912648
8.24,0.9999991768255061,140.7906749621461
8.248000000000001,0.9999994547613887,140.43222520217907
8.256,0.9999997333851308,140.07360445791304
8.264,1.0,139.71481084182088
8.272,1.0,139.355842470213
8.280000000000001,1.0000000000000002,138.9966974632901
8.288,0.9999999999999999,138.637373945196
8.296,0.9999999999999999,138.27787004407108
8.304,1.0,137.91818389210644
8.312,1.0,137.55831362559874
8.32,1.0,137.1982573850046
8.328,1.0,136.83801331499697
8.336,1.0,136.47757956452037
8.344,0.9999999999999999,136.11695428684828
8.352,0.9999999999999999,135.7561356396397
8.36,0.9999999999999999,135.39512178499717
8.368,0.9999999999999999,135.03391088952463
8.376,0.9999999999999999,134.67250112438666
8.384,0.9999999999999999,134.31089066536705
8.392,0.9999999999999998,133.94907769292954
8.4,1.0,133.58706039227724
8.408,1.0,133.2248369534144
8.416,1.0,132.86240557120735
8.424,1.0,132.49976444544694
8.432,0.9999999999999999,132.13691178091085
8.44,1.0,131.7738457874272
8.448,1.0,131.4105646799379
8.456,1.0,131.04706667856345
8.464,1.0,130.68335000866756
8.472,0.9999999999999999,130.31941290092288
8.48,0.9999999999999999,129.9552535913771
8.488,1.0,129.5908703215198
8.496,0.9999999999999999,129.22626133834933
8.504,0.9999999999999999,128.8614248944415
8.512,0.9999999999999999,128.4963592480174
8.52,0.9999999999999999,128.131062663013
8.528,1.0,127.7655334091486
8.536,0.9999999999999998,127.39976976199968
8.544,1.0,127.03377000306713
8.552,1.0,126.66753241984972
8.56,1.0,126.3010553059156
8.568,0.9999999999999999,125.93433696097577
8.576,0.9999999999999999,125.56737569095694
8.584,1.0,125.20016980807628
8.592,0.9999999999999999,124.83271763091554
8.6,1.0,124.46501748449708
8.608,0.9999999999999999,124.09706770035918
8.616,1.0,123.72886661663338
8.624,1.0,123.36041257812111
8.632,1.0,122.99170393637228
8.64,1.0,122.62273904976311
8.648,1.0,122.2535162835761
8.656,1.0,121.88403401007923
8.664,1.0,121.51429060860701
8.672,1.0,121.14428446564104
8.68,0.9999999999999999,120.77401397489244
8.688,0.9999999999999999,120.40347753738367
8.696,0.9999999999999999,120.03267356153222
8.704,1.0,119.66160046323367
8.712,1.0,119.29025666594676
8.72,0.9999999999999998,118.91864060077782
8.728,1.0,118.546750706567
8.736,1.0,118.17458542997392
8.744,0.9999999999999999,117.80214322556547
8.752,0.9999999999999999,117.42942255590262
8.76,0.9999999999999999,117.05642189162928
8.768,1.0,116.68313971156078
8.776,1.0,116.30957450277393
8.784,1.0,115.9357247606965
8.792,0.9999999999999999,115.56158898919885
8.8,0.9999999999999999,115.18716570068472
8.808,1.0000000000000002,114.81245341618391
8.815999999999999,1.0,114.4374506654446
8.824,1.0,114.06215598702686
8.832,0.9999999999999999,113.68656792839685
8.84,1.0,113.31068504602143
8.847999999999999,1.0,112.93450590546308
8.856,1.0,112.55802908147615
8.864,1.0,112.18125315810337
8.872,0.9999999999999999,111.80417672877299
8.879999999999999,0.9999999999999999,111.42679839639625
8.888,1.0,111.04911677346594
8.896,1.0,110.67113048215562
8.904,0.9999999999999999,110.29283815441886
8.911999999999999,1.0,109.91423843208946
8.92,1.0,109.53532996698219
8.928,1.0,109.15611142099448
8.936,1.0,108.77658146620807
8.943999999999999,1.0,108.39673878499147
8.952,0.9999999999999999,108.01658207010317
8.96,0.9999999999999999,107.63611002479551
8.968,1.0,107.25532136291872
8.975999999999999,1.0,106.8742148090256
8.984,0.9999999999999998,106.49278909847698
8.992,1.0,106.1110429775478
9.0,1.0,105.72897520353337
9.008,0.9999999999999999,105.34658454485624
9.016,0.9999999999999999,104.96386978117374
9.024000000000001,1.0,104.5808297034862
9.032,1.0,104.19746311424538
9.04,1.0,103.8137688274632
9.048,0.9999999999999999,103.42974566882151
9.056000000000001,0.9999999999999999,103.04539247578222
9.064,0.9999999999999999,102.66070809769768
9.072,1.0,102.27569139592137
9.08,0.9999999999999999,101.89034124391952
9.088000000000001,1.0,101.50465652738318
9.096,0.9999999999999999,101.11863614434029
9.104,1.0,100.73227900526831
9.112,1.0,100.34558403320749
9.120000000000001,0.9999999999999999,99.95855016387463
9.128,1.0,99.5711763457769
9.136,1.0,99.18346154032602
9.144,0.9999999999999999,98.79540472195312
9.152000000000001,1.0,98.40700487822409
9.16,0.9999999999999999,98.01826100995483
9.168,0.9999999999999999,97.62917213132685
9.176,1.0,97.23973727000366
9.184000000000001,1.0,96.84995546724733
9.192,0.9999999999999999,96.4598257780351
9.2,0.9999999999999998,96.06934727117624
9.208,0.9999999999999999,95.67851902942961
9.216000000000001,1.0,95.28734014962136
9.224,0.9999999999999999,94.89580974276264
9.232,0.9999999999999998,94.50392693416755
9.24,1.0,94.11169086357158
9.248000000000001,1.0,93.71910068525027
9.256,0.9999999999999999,93.32615556813785
9.264,1.0,92.93285469594588
9.272,1.0,92.53919726728249
9.280000000000001,0.9999999999999999,92.14518249577178
9.288,1.0,91.75080961017291
9.296,1.0,91.35607785449949
9.304,1.0,90.96098648813916
9.312000000000001,1.0,90.56553478597343
9.32,1.0,90.16972203849721
9.328,1.0,89.77354755193842
9.336,1.0,89.37701064837772
9.344,1.0,88.98011066586874
9.352,1.0,88.58284695855706
9.36,0.9999999999999999,88.18521889680072
9.368,0.9999999999999998,87.78722586728917
9.376,1.0,87.38886727316356
9.384,1.0,86.99014253413552
9.392,1.0,86.59105108660732
9.4,1.0,86.19159238379038
9.408,0.9999999999999999,85.79176589582515
9.416,1.0,85.39157110989932
9.424,1.0,84.9910075303673
9.432,1.0,84.59007467886804
9.44,0.9999999999999999,84.18877209444408
9.448,1.0,83.78709933365887
9.456,1.0,83.38505597071526
9.464,1.0,82.98264159757218
9.472,1.0,82.57985582406269
9.48,0.9999999999999999,82.1766982780098
9.488,1.0,81.77316860534378
9.496,1.0,81.36926647021744
9.504,1.0,80.9649915551224
9.512,0.9999999999999999,80.56034356100348
9.52,1.0,80.15532220737425
9.528,0.9999999999999999,79.74992723243038
9.536,0.9999999999999999,79.34415839316401
9.544,1.0,78.93801546547625
9.552,1.0,78.53149824429035
9.56,0.9999999999999998,78.12460654366298
9.568,1.0,77.71734019689627
9.576,0.9999999999999999,77.3096990566477
9.584,0.9999999999999999,76.9016829950409
9.592,1.0,76.49329190377419
9.6,0.9999999999999999,76.08452569422981
9.608,1.0,75.67538429758109
9.616,0.9999999999999999,75.26586766490004
9.624,1.0,74.85597576726298
9.632,1.0,74.4457085958565
9.64,1.0,74.03506616208125
9.648,1.0,73.62404849765626
9.656,1.0,73.21265565472086
9.664,0.9999999999999999,72.80088770593703
9.672,1.0,72.38874474458945
9.68,1.0,71.9762268846859
9.688,1.0,71.56333426105515
9.696,1.0,71.15006702944522
9.704,1.0,70.73642536661922
9.712,1.0,70.32240947045122
9.72,0.9999999999999999,69.90801956001987
9.728,1.0,69.49325587570188
9.736,0.9999999999999999,69.07811867926324
9.744,1.0,68.66260825395024
9.752,1.0,68.24672490457799
9.76,0.9999999999999999,67.83046895761903
9.768,1.0,67.41384076128905
9.776,1.0,66.99684068563286
9.784,0.9999999999999999,66.57946912260724
9.792,1.0,66.16172648616399
9.8,0.9999999999999999,65.74361321233009
9.808,1.0,65.32512975928756
9.816,1.0,64.90627660745064
9.824,1.0,64.48705425954253
9.832,1.0,64.06746324066944
9.84,1.0,63.647504098394045
9.847999999999999,0.9999999999999998,63.22717740280631
9.856,1.0,62.80648374659328
9.864,1.0,62.385423745107076
9.872,1.0,61.963998036430894
9.879999999999999,0.9999999999999999,61.542207281443034
9.888,1.0,61.12005216387968
9.896,0.9999999999999999,60.6975333903956
9.904,1.0,60.274651690622754
9.911999999999999,1.0,59.851407817226956
9.92,1.0,59.42780254596288
9.928,1.0,59.0038366757272
9.936,0.9999999999999999,58.57951102860926
9.943999999999999,1.0,58.154826449939705
9.952,1.0,57.72978380833751
9.96,1.0,57.30438399575471
9.968,1.0,56.878627927518906
9.975999999999999,1.0,56.45251654237328
9.984,1.0,56.02605080251507
9.992,0.9999999999999999,55.59923169363164
10.0,1.0,55.172060224933986
10.008,1.0,54.74453742918797
10.016,1.0,54.316664362743595
10.024000000000001,0.9999999999999999,53.888442105561865
10.032,1.0,53.45987176123906
10.04,0.9999999999999999,53.03095445702849
10.048,1.0,52.60169134386012
10.056000000000001,1.0,52.172083596357986
10.064,0.9999999999999999,51.74213241285444
10.072,0.9999999999999999,51.311839015402164
10.08,1.0,50.881204649783726
10.088000000000001,1.0,50.450230585518916
10.096,1.0,50.01891811586872
10.104,0.9999999999999999,49.58726855783706
10.112,1.0,49.15528325216984
10.120000000000001,0.9999999999999999,48.722963563351776
10.128,0.9999999999999999,48.29031087959975
10.136,0.9999999999999999,47.85732661285371
10.144,1.0,47.42401219876494
10.152000000000001,1.0,46.99036909668194
10.16,1.0,46.55639878963269
