freq,mag,phase
6.0,0.9999921064752476,60.14646874442861
6.008,0.9999916031395915,59.928563095626814
6.016,0.9999911090242376,59.71045440712198
6.024,0.9999906239943757,59.49214283870055
6.032,0.9999901479168488,59.27362855406419
6.04,0.999989680660148,59.05491172084405
6.048,0.9999892220944002,58.835992510615135
6.056,0.9999887720913603,58.616871098910416
6.064,0.9999883305244014,58.397547665234946
6.072,0.9999878972685058,58.17802239307984
6.08,0.999987472200256,57.95829546993605
6.088,0.9999870551978238,57.73836708730824
6.096,0.9999866461409627,57.51823744072838
6.104,0.9999862449109971,57.29790672976929
6.112,0.999985851390813,57.07737515805811
6.12,0.9999854654648488,56.85664293328955
6.128,0.9999850870190856,56.63571026723912
6.136,0.9999847159410367,56.41457737577626
6.144,0.9999843521197388,56.193244478877226
6.152,0.9999839954457425,55.971711800638026
6.16,0.9999836458110999,55.749979569287035
6.168,0.9999833031093587,55.528048017197655
6.176,0.9999829672355494,55.3059173809008
6.184,0.9999826380861755,55.08358790109716
6.192,0.9999823155592056,54.86105982266948
6.2,0.9999819995540601,54.638333394694676
6.208,0.9999816899716051,54.41540887045557
6.216,0.9999813867141373,54.192286507453026
6.224,0.999981089685379,53.96896656741731
6.232,0.999980798790464,53.7454493163198
6.24,0.9999805139359291,53.52173502438429
6.248,0.9999802350297042,53.29782396609833
6.256,0.9999799619811006,53.07371642022419
6.264,0.999979694700801,52.84941266980991
6.272,0.9999794331008495,52.62491300220008
6.28,0.9999791770946413,52.40021770904647
6.288,0.9999789265969121,52.175327086318525
6.296,0.999978681523727,51.950241434313796
6.304,0.9999784417924695,51.72496105766797
6.312,0.9999782073218333,51.49948626536501
6.32,0.9999779780318083,51.273817370746954
6.328,0.9999777538436732,51.047954691523756
6.336,0.9999775346799824,50.821898549782595
6.344,0.9999773204645559,50.59564927199748
6.352,0.9999771111224697,50.36920718903826
6.36,0.9999769065800431,50.14257263617984
6.368,0.9999767067648293,49.91574595311087
6.376,0.9999765116056036,49.688727483942586
6.384,0.9999763210323532,49.461517577217144
6.392,0.9999761349762663,49.234116585916176
6.4,0.9999759533697196,49.00652486746877
6.408,0.9999757761462698,48.77874278375951
6.416,0.9999756032406408,48.550770701136265
6.424,0.9999754345887131,48.3226089904178
6.432,0.9999752701275124,48.09425802690115
6.44,0.9999751097952005,47.86571819036894
6.448,0.9999749535310603,47.63698986509628
6.456,0.9999748012754884,47.40807343985781
6.464,0.999974652969982,47.178969307934146
6.472,0.999974508557128,46.9496778671185
6.48,0.9999743679805925,46.72019951972281
6.4879999999999995,0.9999742311851079,46.49053467258392
6.496,0.9999740981164642,46.260683737069265
6.504,0.9999739687214948,46.030647129082794
6.5120000000000005,0.9999738429480682,45.8004252690701
6.52,0.9999737207450736,45.57001858202396
6.5280000000000005,0.9999736020624121,45.33942749748908
6.536,0.9999734868509842,45.108652449567224
6.5440000000000005,0.9999733750626779,44.87769387692149
6.552,0.9999732666503591,44.646552222781054
6.5600000000000005,0.9999731615678588,44.415227934945
6.568,0.9999730597699614,44.18372146578665
6.5760000000000005,0.9999729612123947,43.952033272256884
6.584,0.9999728658518175,43.7201638158882
6.592,0.9999727736458079,43.488113562797366
6.6,0.9999726845528532,43.25588298368909
6.608,0.9999725985323362,43.023472553858525
6.616,0.9999725155445266,42.790882753193976
6.624,0.9999724355505673,42.55811406617936
6.632,0.9999723585124631,42.32516698189626
6.64,0.9999722843930707,42.092041994025955
6.648,0.9999722131560858,41.858739600850996
6.656,0.9999721447660321,41.62526030525683
6.664,0.9999720791882504,41.39160461473288
6.672,0.9999720163888854,41.15777304137362
6.68,0.9999719563348765,40.92376610187925
6.688,0.9999718989939439,40.68958431755625
6.696,0.9999718443345802,40.455228214317664
6.704,0.999971792326035,40.22069832268301
6.712,0.9999717429383067,39.98599517777815
6.72,0.99997169614213,39.751119319334826
6.728,0.9999716519089635,39.51607129168978
6.736,0.9999716102109795,39.28085164378397
6.744,0.9999715710210522,39.0454609291612
6.752,0.9999715343127458,38.80989970596672
6.76,0.9999715000603034,38.57416853694545
6.768,0.9999714682386359,38.33826798943996
6.776,0.9999714388233102,38.10219863538831
6.784,0.9999714117905381,37.86596105132141
6.792,0.9999713871171637,37.629555818360394
6.8,0.9999713647806546,37.39298352221345
6.808,0.9999713447590881,37.15624475317265
6.816,0.9999713270311404,36.91934010611029
6.824,0.9999713115760772,36.68227018047515
6.832,0.9999712983737394,36.445035580288334
6.84,0.9999712874045344,36.20763691413901
6.848,0.9999712786494233,35.970074795179634
6.856,0.9999712720899101,35.73234984112125
6.864,0.9999712677080318,35.49446267422816
6.872,0.9999712654863443,35.25641392131261
6.88,0.9999712654079144,35.01820421372895
6.888,0.9999712674563064,34.77983418736783
6.896,0.999971271615573,34.54130448264977
6.904,0.9999712778702425,34.302615744518725
6.912,0.9999712862053088,34.06376862243526
6.92,0.9999712966062199,33.824763770369486
6.928,0.9999713090588673,33.58560184679363
6.936,0.9999713235495751,33.346283514674454
6.944,0.999971340065089,33.10680944146531
6.952,0.9999713585925654,32.86718029909791
6.96,0.9999713791195606,32.627396763973934
6.968,0.9999714016340203,32.387459516956106
6.976,0.9999714261242684,32.1473692433593
6.984,0.9999714525789973,31.90712663294111
6.992,0.9999714809872564,31.66673237989227
7.0,0.9999715113384413,31.426187182826734
7.008,0.9999715436222841,31.18549174477148
7.016,0.9999715778288425,30.94464677315604
7.024,0.9999716139484895,30.703652979801763
7.032,0.9999716519719024,30.46251108091074
7.04,0.9999716918900539,30.221221797054422
7.048,0.9999717336941998,29.979785853162095
7.056,0.9999717773758708,29.73820397850887
7.064,0.999971822926861,29.496476906703528
7.072,0.9999718703392179,29.25460537567603
7.08,0.9999719196052335,29.012590127664648
7.088,0.9999719707174319,28.770431909203072
7.096,0.9999720236685623,28.528131471106835
7.104,0.9999720784515871,28.285689568459787
7.112,0.9999721350596723,28.04310696060013
7.12,0.999972193486179,27.80038441110614
7.128,0.9999722537246517,27.557522687781677
7.136,0.9999723157688103,27.314522562641386
7.144,0.9999723796125406,27.07138481189547
7.152,0.9999724452498826,26.82811021593447
7.16,0.9999725126750247,26.584699559313385
7.168,0.9999725818822905,26.341153630735842
7.176,0.9999726528661323,26.0974732230377
7.184,0.9999727256211208,25.85365913317057
7.192,0.9999728001419359,25.6097121621849
7.2,0.9999728764233577,25.365633115212834
7.208,0.9999729544602579,25.121422801450777
7.216,0.9999730342475903,24.877082034141704
7.224,0.9999731157803827,24.63261163055707
7.232,0.9999731990537271,24.388012411978533
7.24,0.9999732840627715,24.143285203679365
7.248,0.9999733708027123,23.89843083490555
7.256,0.9999734592687843,23.653450138856556
7.264,0.9999735494562529,23.408343952665962
7.272,0.9999736413604057,23.16311311738166
7.28,0.9999737349765435,22.91775847794578
7.288,0.9999738302999749,22.672280883174384
7.296,0.9999739273260038,22.426681185736886
7.304,0.9999740260499257,22.180960242135082
7.312,0.9999741264670159,21.935118912682057
7.32,0.9999742285725254,21.689158061480594
7.328,0.9999743323616708,21.443078556401534
7.336,0.9999744378296266,21.196881269061688
7.344,0.9999745449715189,20.95056707480153
7.352,0.9999746537824177,20.704136852662543
7.36,0.9999747642573278,20.457591485364453
7.368,0.9999748763911847,20.210931859282002
7.376,0.9999749901788445,19.96415886442149
7.384,0.9999751056150782,19.717273394397093
7.392,0.9999752226945645,19.470276346406905
7.4,0.999975341411883,19.2231686212086
7.4079999999999995,0.9999754617615075,18.975951123094998
7.416,0.9999755837377992,18.728624759869053
7.4239999999999995,0.9999757073349996,18.48119044281913
7.432,0.9999758325472256,18.233649086693184
7.4399999999999995,0.9999759593684607,17.986001609673615
7.448,0.9999760877925515,17.73824893335094
7.4559999999999995,0.9999762178131998,17.49039198269804
7.464,0.9999763494239562,17.242431686043354
7.4719999999999995,0.9999764826182161,16.994368975044583
7.48,0.9999766173892115,16.74620478466133
7.4879999999999995,0.999976753730008,16.49794005312833
7.496,0.9999768916334958,16.249575721927535
7.504,0.9999770310923878,16.001112735760838
7.5120000000000005,0.9999771720992109,15.752552042521664
7.52,0.9999773146463036,15.503894593267141
7.5280000000000005,0.9999774587258091,15.255141342189177
7.536,0.9999776043296702,15.006293246586232
7.5440000000000005,0.9999777514496253,14.757351266833778
7.552,0.9999779000772029,14.508316366355594
7.5600000000000005,0.9999780502037173,14.259189511593789
7.568,0.9999782018202635,14.009971671979553
7.5760000000000005,0.999978354917713,13.760663819902744
7.584,0.9999785094867096,13.511266930682108
7.5920000000000005,0.9999786655176649,13.261781982534378
7.6,0.9999788230007542,13.012209956544094
7.6080000000000005,0.9999789819259125,12.762551836632191
7.616,0.9999791422828306,12.512808609525308
7.6240000000000006,0.9999793040609513,12.262981264723985
7.632,0.9999794672494656,12.013070794471478
7.640000000000001,0.9999796318373103,11.763078193721496
7.648,0.9999797978131618,11.513004460106613
7.656000000000001,0.9999799651654366,11.262850593905503
7.664,0.9999801338822842,11.012617598010943
7.672,0.9999803039515873,10.76230647789663
7.68,0.9999804753609569,10.511918241584624
7.688,0.9999806480977299,10.261453899612016
7.696,0.9999808221489673,10.010914464997649
7.704,0.9999809975014501,9.760300953208553
7.712,0.9999811741416783,9.509614382126179
7.72,0.999981352055867,9.25885577201245
7.728,0.999981531229946,9.0080261454756
7.736,0.9999817116495558,8.757126527435814
7.744,0.9999818933000475,8.506157945090687
7.752,0.9999820761664795,8.255121427880463
7.76,0.999982260233617,8.004018007453123
7.768,0.9999824454859281,7.752848717629264
7.776,0.999982631907586,7.501614594366773
7.784,0.999982819482464,7.250316675725379
7.792,0.9999830081941372,6.99895600183097
7.8,0.9999831980258785,6.747533614839755
7.808,0.9999833889606601,6.496050558902258
7.816,0.9999835809811515,6.2445078801271565
7.824,0.999983774069719,5.992906626544897
7.832,0.9999839682084243,5.741247848071209
7.84,0.999984163379026,5.489532596470435
7.848,0.9999843595629765,5.237761925318678
7.856,0.9999845567414242,4.985936889966844
7.864,0.9999847548952114,4.734058547503483
7.872,0.9999849540048759,4.4821279567175
7.88,0.9999851540506504,4.230146178060735
7.888,0.999985355012462,3.9781142736103763
7.896,0.999985556869934,3.7260333070312446
7.904,0.9999857596023852,3.473904343537934
7.912,0.9999859631888316,3.22172844985683
7.92,0.9999861676079853,2.969506694187991
7.928,0.9999863728382575,2.717240146166886
7.936,0.9999865788577574,2.4649298768260484
7.944,0.9999867856442953,2.212576958556557
7.952,0.9999869931753819,1.960182465069442
7.96,0.9999872014282308,1.7077474713569574
7.968,0.9999874103797595,1.455273053653736
7.976,0.999987620006591,1.2027602893978517
7.984,0.9999878302850553,0.950210257191768
7.992,0.9999880411911913,0.6976240367631829
8.0,0.9999882527007488,0.4450027089257834
8.008,0.9999884647891901,0.19234735553992602
8.016,0.9999886774316922,-0.06034094052693911
8.024000000000001,0.99998889060315,-0.3130610954395401
8.032,0.9999891042781764,-0.5658120244345334
8.04,0.9999893184311078,-0.8185926418603039
8.048,0.9999895330360032,-1.0714018612166267
8.056000000000001,0.9999897480666503,-1.3242385951943916
8.064,0.9999899634965649,-1.5771017557156335
8.072,0.999990179298997,-1.8299902539736244
8.08,0.9999903954469315,-2.0829030004728057
8.088000000000001,0.9999906119130922,-2.3358389050687873
8.096,0.9999908286699444,-2.588796877008616
8.104,0.9999910456896992,-2.841775824971112
8.112,0.9999912629443166,-3.0947746571070143
8.120000000000001,0.999991480405508,-3.3477922810791974
8.128,0.9999916980447408,-3.600827604103125
8.136,0.9999919158332423,-3.8538795329873627
8.144,0.9999921337420024,-4.1069469741739075
8.152000000000001,0.9999923517417787,-4.360028833778531
8.16,0.9999925698030998,-4.613124017631391
8.168,0.9999927878962704,-4.8662314313176465
8.176,0.999993005991373,-5.119349980217926
8.184000000000001,0.9999932240582756,-5.372478569548726
8.192,0.9999934420666338,-5.625616104403133
8.2,0.999993659985896,-5.8787614897915015
8.208,0.9999938777853072,-6.131913630681953
8.216000000000001,0.999994095433915,-6.385071432040844
8.224,0.9999943129005744,-6.638233798873476
8.232,0.9999945301539502,-6.8913996362648255
8.24,0.9999947471625255,-7.144567849419976
8.248000000000001,0.9999949638946036,-7.3977373437046365
8.256,0.9999951803183151,-7.650907024685768
8.264,0.9999953964016225,-7.9040757981722845
8.272,0.9999956121123245,-8.157242570255432
8.280000000000001,0.999995827418063,-8.410406247349197
8.288,0.9999960422863277,-8.663565736230893
8.296,0.9999962566844618,-8.916719944081692
8.304,0.9999964705796668,-9.16986777852695
8.312,0.9999966839390095,-9.423008147676379
8.32,0.999996896729427,-9.67613996016479
8.328,0.9999971089177316,-9.929262125191906
8.336,0.9999973204706191,-10.18237355256305
8.344,0.9999975313546727,-10.435473152728866
8.352,0.9999977415363691,-10.68855983682591
8.36,0.9999979509820862,-10.94163251671623
8.368,0.9999981596581066,-11.194690105027856
8.376,0.9999983675306272,-11.447731515194244
8.384,0.9999985745657619,-11.700755661494622
8.392,0.9999987807295521,-11.953761459093297
8.4,0.9999989859879677,-12.206747824079851
8.408,0.9999991903069186,-12.459713673508304
8.416,0.9999993936522592,-12.712657925437092
8.424,0.9999995959897937,-12.965579498968136
8.432,0.9999997972852855,-13.218477314286606
8.44,0.9999999975044611,-13.471350292699777
8.448,1.0,-13.724197356676651
8.456,1.0,-13.977017429886587
8.464,1.0,-14.229809437238732
8.472,1.0,-14.482572304920437
8.48,1.0,-14.73530496043646
8.488,1.0,-14.98800633264714
8.496,0.9999999999999999,-15.240675351807436
8.504,1.0,-15.493310949604837
8.512,1.0,-15.745912059198092
8.52,0.9999999999999998,-15.998477615254941
8.528,0.9999999999999999,-16.251006553990578
8.536,0.9999999999999999,-16.503497813205122
8.544,0.9999999999999999,-16.7559503323218
8.552,1.0,-17.0083630524241
8.56,0.9999999999999999,-17.26073491629375
8.568,1.0,-17.51306486844759
8.576,1.0,-17.765351855175155
8.584,1.0,-18.01759482457533
8.592,1.0,-18.269792726593614
8.6,1.0,-18.521944513058497
8.608,1.0,-18.774049137718322
8.616,1.0,-19.026105556277358
8.624,0.9999999999999999,-19.278112726432447
8.632,0.9999999999999998,-19.530069607908604
8.64,0.9999999999999999,-19.78197516249538
8.648,0.9999999999999999,-20.033828354082132
8.656,1.0,-20.285628148694006
8.664,1.0,-20.537373514526855
8.672,0.9999999999999999,-20.789063421982856
8.68,0.9999999999999998,-21.04069684370512
8.688,1.0000000000000002,-21.292272754612853
8.696,1.0,-21.543790131935594
8.704,1.0,-21.795247955248072
8.712,1.0,-22.04664520650397
8.72,1.0,-22.297980870070436
8.728,1.0,-22.54925393276144
8.736,0.9999999999999999,-22.800463383871865
8.744,1.0,-23.051608215210457
8.752,1.0,-23.302687421133527
8.76,0.9999999999999998,-23.553699998577468
8.768,1.0,-23.804644947092036
8.776,1.0000000000000002,-24.055521268872436
8.784,1.0,-24.306327968792164
8.792,0.9999999999999999,-24.55706405443465
8.8,1.0,-24.807728536125715
8.808,0.9999999999999999,-25.058320426964713
8.815999999999999,1.0,-25.308838742856473
8.824,0.9999999999999998,-25.559282502542317
8.832,1.0,-25.809650727631
8.84,1.0,-26.059942442629563
8.847999999999999,1.0,-26.310156674974014
8.856,1.0,-26.560292455059546
8.864,0.9999999999999999,-26.810348816270423
8.872,0.9999999999999999,-27.06032479500999
8.879999999999999,1.0,-27.310219430730353
8.888,1.0,-27.560031765961586
8.896,1.0,-27.80976084634077
8.904,1.0,-28.05940572064091
8.911999999999999,1.0,-28.30896544079968
8.92,0.9999999999999999,-28.558439061947617
8.928,1.0,-28.807825642436196
8.936,1.0,-29.057124243865687
8.943999999999999,1.0,-29.30633393111291
8.952,1.0,-29.555453772358494
8.96,1.0,-29.80448283911378
8.968,1.0,-30.053420206247726
8.975999999999999,1.0,-30.302264952013658
8.984,0.9999999999999999,-30.55101615807543
8.992,0.9999999999999998,-30.799672909533246
9.0,0.9999999999999999,-31.048234294949626
9.008,1.0,-31.296699406375033
9.016,0.9999999999999999,-31.545067339372913
9.024000000000001,0.9999999999999999,-31.79333719304455
9.032,0.9999999999999999,-32.04150807005394
9.04,1.0,-32.289579076652224
9.048,1.0,-32.53754932270179
9.056000000000001,0.9999999999999999,-32.7854179217
9.064,0.9999999999999999,-33.033183990802925
9.072,1.0,-33.280846650848694
9.08,1.0,-33.52840502638055
9.088000000000001,0.9999999999999999,-33.7758582456694
9.096,0.9999999999999999,-34.02320544073651
9.104,0.9999999999999999,-34.27044574737573
9.112,1.0,-34.517578305175356
9.120000000000001,1.0,-34.76460225753968
9.128,1.0,-35.01151675171044
9.136,1.0,-35.25832093878811
9.144,1.0,-35.50501397375237
9.152000000000001,0.9999999999999999,-35.75159501548277
9.16,0.9999999999999999,-35.998063226778925
9.168,1.0,-36.24441777438064
9.176,1.0,-36.49065782898742
9.184000000000001,1.0,-36.73678256527777
9.192,1.0,-36.98279116192839
9.2,1.0,-37.22868280163312
9.208,0.9999999999999999,-37.474456671121324
9.216000000000001,1.0,-37.72011196117601
9.224,1.0,-37.96564786665194
9.232,0.9999999999999999,-38.211063586493346
9.24,1.0,-38.456358323751196
9.248000000000001,1.0,-38.70153128560025
9.256,1.0,-38.94658168335583
9.264,0.9999999999999999,-39.191508732490654
9.272,0.9999999999999999,-39.43631165265066
9.280000000000001,0.9999999999999999,-39.680989667671085
9.288,1.0,-39.92554200559215
9.296,1.0,-40.16996789867445
9.304,1.0,-40.41426658341399
9.312000000000001,1.0,-40.65843730055687
9.32,1.0,-40.902479295113864
9.328,1.0,-41.146391816374724
9.336,1.0,-41.390174117922015
9.344,1.0,-41.63382545764461
9.352,0.9999999999999999,-41.87734509775138
9.36,1.0,-42.120732304783814
9.368,1.0,-42.36398634962931
9.376,1.0,-42.607106507533096
9.384,0.9999999999999999,-42.85009205811104
9.392,0.9999999999999999,-43.09294228536098
9.4,1.0,-43.33565647767485
9.408,0.9999999999999999,-43.57823392784971
9.416,1.0,-43.820673933099044
9.424,0.9999999999999999,-44.06297579506326
9.432,1.0,-44.30513881982063
9.44,1.0,-44.54716231789695
9.448,1.0,-44.789045604276076
9.456,1.0,-45.030787998409046
9.464,0.9999999999999999,-45.27238882422398
9.472,0.9999999999999999,-45.51384741013466
9.48,1.0,-45.75516308904983
9.488,1.0,-45.996335198381345
9.496,0.9999999999999999,-46.23736308005284
9.504,0.9999999999999999,-46.47824608050729
9.512,0.9999999999999999,-46.718983550715166
9.52,1.0,-46.959574846181525
9.528,0.9999999999999999,-47.200019326953495
9.536,0.9999999999999999,-47.44031635762683
9.544,0.9999999999999999,-47.68046530735296
9.552,1.0,-47.92046554984492
9.56,1.0,-48.16031646338387
9.568,1.0,-48.400017430824505
9.576,1.0,-48.639567839601035
9.584,1.0,-48.878967081732036
9.592,1.0,-49.11821455382594
9.6,1.0,-49.357309657085395
9.608,0.9999999999999999,-49.59625179731212
9.616,1.0,-49.83504038491077
9.624,0.9999999999999999,-50.073674834893374
9.632,0.9999999999999999,-50.31215456688258
9.64,0.9999999999999999,-50.55047900511559
9.648,1.0,-50.788647578446955
9.656,1.0,-51.02665972035188
9.664,1.0,-51.264514868928615
9.672,0.9999999999999999,-51.50221246690127
9.68,1.0,-51.739751961621614
9.688,0.9999999999999998,-51.977132805071435
9.696,0.9999999999999999,-52.21435445386383
9.704,0.9999999999999999,-52.451416369245095
9.712,1.0,-52.68831801709554
9.72,0.9999998795392538,-52.92505886793083
9.728,0.9999996352545317,-53.16163839690234
9.736,0.9999993886489046,-53.39805608379807
9.744,0.9999991397613672,-53.634311413042404
9.752,0.9999988886315272,-53.87040387369664
9.76,0.9999986352996022,-54.10633295945831
9.768,0.9999983798064153,-54.34209816866108
9.776,0.9999981221933907,-54.57769900427378
9.784,0.9999978625025494,-54.81313497389981
9.792,0.9999976007765043,-55.04840558977552
9.8,0.9999973370584558,-55.28351036876942
9.808,0.9999970713921873,-55.51844883237999
9.816,0.9999968038220585,-55.75322050673436
