freq,mag,phase
6.0,1.0000157891182766,-173.01598801731598
6.004499456,1.000204747189778,-173.31834090692973
6.008998912,1.0003814101633781,-173.623159231999
6.013498368,1.0005361465190563,-173.9302494045147
6.017997824,1.0006595880494913,-174.23920772134258
6.02249728,1.0007447436713486,-174.54956254802295
6.026996736,1.0007864863619762,-174.8607304004518
6.031496192,1.0007822231289112,-175.1721280377901
6.035995648,1.0007323118520564,-175.48303735701685
6.040495104,1.000639779223676,-175.79290910213834
6.04499456,1.0005097606381073,-176.10114412341568
6.049494016,1.0003502044759176,-176.40730059956297
6.053993472,1.0001702436580606,-176.7110051246634
6.058492928,0.999980570437288,-177.01203872044638
6.062991872,0.9997921688403385,-177.31037214817553
6.067491328,0.99961647349489,-177.606071997303
6.071990784,0.999463664011907,-177.8994279216844
6.07649024,0.9993426414790231,-178.19074867332088
6.080989696,0.9992606998379269,-178.48057863329188
6.085489152,0.9992226965340049,-178.76948624050527
6.089988608,0.999230736811408,-179.05816525917726
6.094488064,0.9992845825850039,-179.34715924515623
6.09898752,0.9993808993204584,-179.6371552075011
6.103486976,0.9995141626156778,-179.92865295423024
6.107986432,0.9996764140592318,179.77779423400312
6.112485888,0.9998580016672176,179.48195742865326
6.116985344,1.0000485313748613,179.18359366614604
6.1214848,1.0002365803275481,178.88260316403063
6.125984256,1.0004111716745125,178.57918448145003
6.130483712,1.0005619684669982,178.2735373281341
6.134983168,1.0006800201191643,177.96609375765348
6.139482624,1.000758415059727,177.6573654742832
6.14398208,1.000792685223874,177.34791061120785
6.148481536,1.0007806919506173,177.0383692616141
6.152980992,1.0007229339117913,176.72941694048606
6.157480448,1.0006231910603276,176.42160139437476
6.161979904,1.000486991743608,176.11553386150882
6.16647936,1.0003224376052116,175.81160064010714
6.170978816,1.0001391220450886,175.51022477384274
6.175478272,0.999947991859217,175.21154598284133
6.179977728,0.9997600742204382,174.91559626145448
6.184477184,0.9995866596657218,174.6222201311517
6.188976128,0.9994378954956992,174.33121031580302
6.193475584,0.9993225554613043,174.0421165487515
6.19797504,0.999247376687646,173.75445849719563
6.202474496,0.9992170003227306,173.46760874060706
6.206973952,0.999233049295638,173.18094609767635
6.211473408,0.9992946615894218,172.89379840349866
6.215972864,0.999398361494061,172.6056124075178
6.22047232,0.999537780529212,172.31576595400585
6.224971776,0.9997049191920673,172.02387339936786
6.229471232,0.9998898370900853,171.72955553149532
6.233970688,1.0000816387465752,171.43272559463864
6.238470144,1.0002690590086083,171.13327921140345
6.2429696,1.0004410401703507,170.8314264332207
6.247469056,1.0005875475237334,170.52740221354347
6.251968512,1.000699731909637,170.22166955058483
6.256467968,1.0007712335252865,169.9147189230446
6.260967424,1.0007976999047072,169.60717930120254
6.26546688,1.0007775629971856,169.29963880830113
6.269966336,1.0007120888772734,168.99278279281071
6.274465792,1.0006049232888972,168.68725474890914
6.278965248,1.0004625967981247,168.38349183747664
6.283464704,1.0002930554957998,168.08203935505662
6.28796416,1.0001068231365333,167.78312083096742
6.292463616,0.9999145068447728,167.48694644740914
6.296963072,0.9997272988510495,167.19352754889823
6.301462528,0.9995566905289575,166.9026799245128
6.305961984,0.9994123477841935,166.61414375743263
6.31046144,0.9993029877848324,166.32748338787692
6.314960384,0.9992349856163388,166.04211317904728
6.31945984,0.9992125643100497,165.7574880874471
6.323959296,0.9992367786672749,165.47291280643242
6.328458752,0.9993064195467347,165.18779669358065
6.332958208,0.9994173825208228,164.90148669821463
6.337457664,0.9995628969461419,164.61345342800635
6.34195712,0.999734824803698,164.32328940376829
6.346456576,0.9999226995231358,164.0306901466307
6.350956032,1.0001155273536317,163.73549017439382
6.355455488,1.0003020599205488,163.43770486800977
6.359954944,1.0004711143988922,163.1375472945703
6.3644544,1.0006128531840977,162.83530034705885
6.368953856,1.0007188852233004,162.53137296516076
6.373453312,1.0007829738545495,162.22638809133866
6.377952768,1.0008014442681956,161.920865405842
6.382452224,1.000772968234162,161.61549758667388
6.38695168,1.0006994307080768,161.31095113573022
6.391451136,1.0005850146485746,161.00778490151862
6.395950592,1.0004365260277277,160.70656427984363
6.400450048,1.000262448882996,160.40766132909718
6.404949504,1.0000732410512818,160.11139582045323
6.40944896,0.9998799875352806,159.8178762605343
6.413948416,0.9996940671101531,159.5271352158278
6.418447872,0.9995265211233103,159.23894129594714
6.422947328,0.9993870947509229,158.95297763837405
6.427446784,0.9992841166412336,158.66881602369048
6.43194624,0.999223681986779,158.3858821397919
6.436445696,0.9992093126727503,158.10359226690156
6.44094464,0.9992421281752782,157.82124473231224
6.445444096,0.9993198454044577,157.53818036406508
6.449943552,0.9994381891886941,157.25385655777592
6.454443008,0.999590002260672,156.96769585186885
6.458942464,0.9997663819041315,156.6793903085336
6.46344192,0.9999569023218886,156.38856415759014
6.467941376,1.0001505470932626,156.0951267162789
6.472440832,1.0003356030851334,155.79913482401284
6.476940288,1.0005013481759082,155.5007434141852
6.481439744,1.0006379055657786,155.20037326508907
6.4859392,1.0007374499003798,154.89841230567248
6.490438656,1.000793898214866,154.59544813857292
6.494938112,1.0008040503693056,154.29210797881024
6.499437568,1.000766923223966,153.98903782956597
6.503937024,1.0006852607697474,153.68691508810102
6.50843648,1.0005634172303424,153.3862759671538
6.512935936,1.000408704957832,153.08763776898078
6.517435392,1.0002301363787816,152.7914584237115
6.521934848,1.0000384072165565,152.49793738770205
6.526434304,0.9998446329315211,152.20719029273448
6.53093376,0.9996603516574777,151.91921709098068
6.535433216,0.9994962324966676,151.63377907140838
6.539932672,0.999362161132243,151.35049192890207
6.544432128,0.9992660164714708,151.06894366486344
6.548931584,0.9992135225326919,150.7885259317739
6.55343104,0.9992077603958994,150.50859306038586
6.557930496,0.9992491095248267,150.22852097717566
6.562429952,0.9993351764160324,149.9476619869025
6.566928896,0.9994607922142004,149.66537618949607
6.571428352,0.9996187534808677,149.3811838059529
6.575927808,0.9997994173673113,149.0947544926364
6.580427264,0.9999924777508101,148.8057557601089
6.58492672,1.0001863598204375,148.5141307574227
6.589426176,1.0003696443420946,148.21999808772486
6.593925632,1.0005316910036557,147.92347142022953
6.598425088,1.0006626752805183,147.62504571419726
6.602924544,1.0007551528306486,147.325139068383
6.607424,1.0008034601922549,147.02432123307514
6.611923456,1.0008048542137382,146.72323552904612
6.616422912,1.0007591931391302,146.4225724386337
6.620922368,1.000669037787367,146.1229348924139
6.625421824,1.0005398668992784,145.82489491306248
6.62992128,1.000379250064377,145.5290023765911
6.634420736,1.0001964333228937,145.23558421820545
6.638920192,1.0000024212345886,144.94492107303856
6.643419648,0.9998083768354591,144.6570621581125
6.647919104,0.9996260569713108,144.3719394707661
6.65241856,0.9994660231858041,144.08930438078207
6.656918016,0.9993377763378131,143.80876170853537
6.661417472,0.9992489379073591,143.52987082591648
6.665916928,0.9992046438016549,143.25199669477018
6.670416384,0.9992078201887191,142.9744903168489
6.67491584,0.9992578956066872,142.69673238062373
6.679415296,0.9993523231384781,142.41803666444278
6.683914752,0.9994854293884721,142.13784585593172
6.688413696,0.9996492551428331,141.85566743064425
6.692913152,0.9998340170949316,141.5711229906848
6.697412608,1.0000291943253812,141.28400621434352
6.701912064,1.0002229412893378,140.99427953847442
6.70641152,1.0004041215212838,140.7019941614626
6.710910976,1.0005618478036178,140.40744809266732
6.715410432,1.0006868987979558,140.11097472405314
6.719909888,1.0007717185349423,139.81316063655393
6.724409344,1.0008116242900353,139.51455404204333
6.7289088,1.0008039702138123,139.2158302571267
6.733408256,1.000749381952118,138.91760625637076
6.737907712,1.0006508847822828,138.6205508365067
6.742407168,1.0005142949454862,138.3252131977969
6.746906624,1.0003478033857196,138.03210856692374
6.75140608,1.000160904573673,137.7415773811234
6.755905536,0.9999649624079973,137.45381246291538
6.760404992,0.9997712922290783,137.16885364943113
6.764904448,0.9995913293812976,136.88661130380922
6.769403904,0.9994358401846928,136.60685776224935
6.77390336,0.9993137966903862,136.32910914886799
6.778402816,0.9992327296323605,136.05285918027076
6.782902272,0.9991972166235907,135.77756376412773
6.787401728,0.9992095133348161,135.50252788557083
6.791901184,0.9992687441223532,135.22708401053686
6.79640064,0.9993715656158311,134.9505927819639
6.800900096,0.9995118605972912,134.67244686122265
6.805399552,0.9996814512093661,134.39225111411616
6.809899008,0.9998702594972408,134.10967713001315
6.814397952,1.000067216940977,133.82443237375765
6.818897408,1.0002605326062706,133.53656795673072
6.823396864,1.0004390028728096,133.2461872303056
6.82789632,1.000591903363162,132.9535765443896
6.832395776,1.0007103287317891,132.65915821635855
6.836895232,1.0007873257510678,132.36345497196453
6.841394688,1.0008183579150445,132.06713069765985
6.845894144,1.0008015195955993,131.77075114704817
6.8503936,1.000737665886302,131.47502068973142
6.854893056,1.000630742841353,131.1805948849738
6.859392512,1.0004868361141794,130.88802096336445
6.863891968,1.0003146758009558,130.59775047986395
6.868391424,1.0001240447528892,130.3101064518276
6.87289088,0.9999264810761671,130.02528066001102
6.877390336,0.999733372126524,129.74326968226404
6.881889792,0.9995564208362123,129.46397584729357
6.886389248,0.9994058271828035,129.18703854554198
6.890888704,0.9992906326317641,128.91207129411865
6.89538816,0.9992176329406669,128.638570247409
6.899887616,0.9991912963343729,128.36580796814795
6.904387072,0.999213011926212,128.09318962215374
6.908886528,0.9992815089354197,127.82003309696202
6.913385984,0.9993928637983265,127.54570911381626
6.91788544,0.9995405292915237,127.26965267886311
6.922384896,0.9997156701383629,126.99143794474602
6.926884352,0.9999080736601145,126.71072915641437
6.931383808,1.0001063758725819,126.42735635710494
6.935883264,1.0002987501081086,126.14137867433618
6.940382208,1.0004738939225648,125.85287797322682
6.944881664,1.0006216271651647,125.56221956062859
6.94938112,1.0007330966479586,125.26985593155696
6.953880576,1.000801728191877,124.97629711361641
6.958380032,1.0008234067374004,124.68220956826389
6.962879488,1.0007969561861714,124.38822476176709
6.967378944,1.0007237355534269,124.09504256208773
6.9718784,1.0006084302405454,123.80328485102486
6.976377856,1.0004573061235547,123.51345785848662
6.980877312,1.0002794595525268,123.22604044227883
6.985376768,1.0000854370619279,122.94130818408085
6.989876224,0.9998866315445787,122.65945008990661
6.99437568,0.9996948220608909,122.38037738957175
6.998875136,0.9995212169371992,122.10400433281787
7.003374592,0.9993762884433128,121.82992719217722
7.007874048,0.9992684685790021,121.55772611021226
7.012373504,0.9992040837567413,121.28685666301845
7.01687296,0.9991870578027435,121.01662703569517
7.021372416,0.9992184564380686,120.74641925198777
7.025871872,0.9992964445040182,120.47549552991833
7.030371328,0.9994164434389624,120.20328359575966
7.034870784,0.9995712203631181,119.92925148755502
7.03937024,0.9997517813476197,119.65294695626382
7.043869696,0.9999474618775088,119.37409080634636
7.048369152,1.000146598366249,119.09258751841125
7.052868608,1.0003376289981023,118.80837703111472
7.057368064,1.0005090811887438,118.52177815731476
7.06186752,1.00065099763166,118.23305939901869
7.066366464,1.0007549117102772,117.94269148543096
7.07086592,1.0008145625566554,117.65129818641086
7.075365376,1.0008266386269835,117.3594530313448
7.079864832,1.0007903989049738,117.06787192567627
7.084364288,1.0007077954439139,116.77721891988998
7.088863744,1.000583817490491,116.48809384487247
7.0933632,1.0004256257505753,116.20107185659484
7.097862656,1.0002424913406882,115.91648685882284
7.102362112,1.0000453676497858,115.63468591648466
7.106861568,0.999845961920801,115.35572788038746
7.111361024,0.9996556743988789,115.07959309333496
7.11586048,0.9994860874794183,114.80610846235236
7.120359936,0.9993471567599966,114.53485171256412
7.124859392,0.9992472083031706,114.26537646404417
7.129358848,0.9991920147351725,113.99708967409538
7.133858304,0.9991847527141797,113.72931982237007
7.13835776,0.9992261285140032,113.46141180810982
7.142857216,0.9993137495615393,113.19269260682687
7.147356672,0.9994421265574827,112.9225453415943
7.151856128,0.9996040030615451,112.6504487245995
7.156355584,0.9997896597363953,112.37600852863268
7.16085504,0.9999881797015204,112.0989490762262
7.165354496,1.000187875408207,111.81917931649673
7.169853952,1.0003768634644246,111.53677456795181
7.174353408,1.0005440813583861,111.25200453726104
7.178852864,1.0006796222145786,110.9651493499138
7.18335232,1.0007754399439117,110.67677379953159
7.187851264,1.0008258846562135,110.38747004755197
7.19235072,1.0008279364867636,110.09789064764298
7.196850176,1.000781530260632,109.80869830247681
7.201349632,1.0006892954888493,109.52057035510487
7.205849088,1.0005566964690777,109.2341026438946
7.210348544,1.0003915974307034,108.94979795284993
7.214848,1.0002035608356143,108.66803897432247
7.219347456,1.000003772020167,108.38911114944965
7.223846912,0.9998040541283901,108.11305693275828
7.228346368,0.9996160484305691,107.83984580740179
7.232845824,0.9994510980738882,107.56915413476527
7.23734528,0.9993188326910769,107.30066730563384
7.241844736,0.9992271481659615,107.03382906476767
7.246344192,0.9991813870941174,106.76806725773561
7.250843648,0.9991843593967411,106.50268504462939
7.255343104,0.9992360207049295,106.23700450153513
7.25984256,0.9993332444162181,105.97038084086942
7.264342016,0.9994701459400877,105.70219123792727
7.268841472,0.9996389300189384,105.43191867323368
7.273340928,0.999829425852359,105.15924246888726
7.277840384,1.0000303754283528,104.8839307677926
7.28233984,1.0002300332656309,104.60584324358925
7.286839296,1.0004165606262987,104.32513765194285
7.291338752,1.0005789574843376,104.04210431202326
7.295838208,1.000707446116678,103.75711329038208
7.300337664,1.0007946107584766,103.47069283409358
7.30483712,1.00083533516881,103.18344588484813
7.309336576,1.00082704801153,102.89606309118336
7.31383552,1.0007703414008553,102.60919868739629
7.318334976,1.000668541939988,102.32355094505478
7.322834432,1.000527460420803,102.03967308733512
7.327333888,1.0003554786055855,101.7580832033515
7.331833344,1.0001628145061612,101.47914091129107
7.3363328,0.9999607894023648,101.20302759588269
7.340832256,0.9997613256910508,100.92982709226577
7.345331712,0.9995761596666534,100.6594021195396
7.349831168,0.9994163357773521,100.39150925247682
7.354330624,0.9992913131705305,100.12569091739167
7.35883008,0.9992083857023348,99.86143225415954
7.363329536,0.9991726983280791,99.59807415554275
7.367828992,0.9991862890927142,99.3349620689566
7.372328448,0.9992483935804943,99.07140031435459
7.376827904,0.9993551697714973,98.80676357367788
7.38132736,0.9995006216540829,98.54044154138452
7.385826816,0.9996759409563911,98.27191058698479
7.390326272,0.9998709110732925,98.00089845181279
7.394825728,1.0000738922873982,97.7271649124448
7.399325184,1.000272944672313,97.45068120727541
7.40382464,1.000456339237223,97.1716294151269
7.408324096,1.0006132441427107,96.89023095715484
7.412823552,1.0007342605634906,96.60699342532608
7.417323008,1.0008123715071529,96.32246349636722
7.421822464,1.0008428524767277,96.03722661322925
7.42632192,1.0008239923977393,95.75199160528133
7.430821376,1.0007567368092045,95.46741539054628
7.435320832,1.0006450541122152,95.18421084047003
7.439819776,1.0004958203142502,94.90288948482385
7.444319232,1.000317268292756,94.62395878941427
7.448818688,1.0001203424309844,94.34772353436634
7.453318144,0.9999165459865567,94.07440764153942
7.4578176,0.9997179641027717,93.8039351670036
7.462317056,0.9995362272291226,93.53629150870768
7.466816512,0.9993821383235347,93.27105150791091
7.471315968,0.9992649679590115,93.00779453505156
7.475815424,0.9991915057569527,92.74596994398179
7.48031488,0.9991661395490473,92.48493066414807
7.484814336,0.9991904436257684,92.22397112357982
7.489313792,0.9992631993917345,91.96241908786665
7.493813248,0.9993797789786275,91.69961707230065
7.498312704,0.9995334327765969,91.43500819361056
7.50281216,0.9997151889328122,91.1681262129775
7.507311616,0.9999141299638528,90.89864086626248
7.511811072,1.0001186550061034,90.62638266879281
7.516310528,1.0003165998001735,90.35141607621283
7.520809984,1.000496145831098,90.07385694545297
7.52530944,1.0006469748830007,89.7940665297973
7.529808896,1.0007599418998379,89.51251415133972
7.534308352,1.00082834149824,89.22974989577666
7.538807808,1.000848335873176,88.9464370270989
7.543307264,1.0008184463522036,88.66330476588001
7.54780672,1.0007405603630446,88.38098405783958
7.552306176,1.0006193175040008,88.1001168246505
7.556805632,1.0004616754337108,87.82129231189381
7.561305088,1.0002770175078142,87.54494270555098
7.565804032,1.0000762418424585,87.2713796784889
7.570303488,0.9998711734952059,87.00071662562284
7.574802944,0.9996740143055837,86.73296899631325
7.5793024,0.9994963094668041,86.4679450861322
7.583801856,0.9993486619547444,86.20525567296421
7.588301312,0.9992398449009213,85.94446606613128
7.592800768,0.999176274070242,85.68496264762081
7.597300224,0.9991617171500276,85.42612255507788
7.60179968,0.9991973195255268,85.16717326790673
7.606299136,0.9992805318432421,84.90745557989315
7.610798592,0.9994068869958298,84.6463673579868
7.615298048,0.9995687393485091,84.38335068433602
7.619797504,0.99975644565511,84.11792216731783
7.62429696,0.9999589179494548,83.84983938891904
7.628796416,1.0001644969410093,83.57897066645381
7.633295872,1.0003605968820732,83.30535660934258
7.637795328,1.0005358903281407,83.0291910191531
7.642294784,1.0006798480679993,82.75089028946147
7.64679424,1.0007841406881806,82.47091280703168
7.651293696,1.0008424508169407,82.18988089486366
7.655793152,1.0008514110488913,81.9084184415207
7.660292608,1.0008104249317193,81.62727038752202
7.664792064,1.0007216671126489,81.34710564761258
7.66929152,1.0005907841459367,81.06854216802022
7.673790976,1.0004251619754272,80.79211160547888
7.678290432,1.000234667623323,80.51827034317638
7.682789888,1.000030481134134,80.24726021323328
7.687289344,0.9998247333851807,79.97919898947937
7.691788288,0.9996296250797067,79.71403247148277
7.696287744,0.9994566652368404,79.45152952479108
7.7007872,0.9993159709235835,79.1912939950485
7.705286656,0.9992162138153222,78.93281519761337
7.709786112,0.9991630394320012,78.67551345335812
7.714285568,0.9991597489433822,78.41865493123007
7.718785024,0.9992065244238588,78.1615771004993
7.72328448,0.9993006814660561,77.90357736181726
7.727783936,0.9994365486840324,77.64405736503474
7.732283392,0.9996062650973253,77.38243009886573
7.736782848,0.9997996016475454,77.11834505969775
7.741282304,1.0000052387074603,76.85151365166456
7.74578176,1.0002110390577046,76.58188605713696
7.750281216,1.0004048824554934,76.30948772000673
7.754780672,1.000575045171948,76.03464903452026
7.759280128,1.0007117068913804,75.75769114927392
7.763779584,1.0008066752261942,75.47919323454558
7.76827904,1.0008543673639037,75.19975716009465
7.772778496,1.0008518923696055,74.92008272353522
7.777277952,1.0007994876321025,74.64084581490553
7.781777408,1.0007001351684368,74.3627457141568
7.786276864,1.0005596012805282,74.08638773007219
7.79077632,1.0003862821461404,73.81230186298276
7.795275776,1.0001903054684504,73.54085062686809
7.799775232,0.9999833591044622,73.27230191190795
7.804274688,0.9997775616624893,73.0067352603309
7.808774144,0.9995851721400568,72.74400674629251
7.813273088,0.9994175723122133,72.48389337389904
7.817772544,0.9992846053295724,72.22596933653043
7.822272,0.9991943799021558,71.96966325395104
