freq,mag,phase
6.0,1.0004327118964709,156.75744036671819
6.002286592,1.0006968772575893,156.60218560925344
6.004572672,1.0009166175007065,156.44351492542268
6.006859264,1.0010782481552056,156.2821284609952
6.009145344,1.001171821095883,156.118974388206
6.011431936,1.0011910605100491,155.95506735938645
6.013718016,1.0011350291532266,155.79150193343423
6.016004608,1.0010069578547574,155.6293549745102
6.018290688,1.00081490190985,155.4695755672282
6.02057728,1.000571105560671,155.3130487055349
6.022863872,1.0002908138648012,155.1604237016709
6.025149952,0.9999917726912451,155.01202375159534
6.027436544,0.999692896179536,154.86805974350716
6.029722624,0.9994129401425944,154.72840264998658
6.032009216,0.9991699031878849,154.59263948231194
6.034295296,0.9989789581198565,154.46009686498175
6.036581888,0.9988525286552827,154.32994555742275
6.03886848,0.9987984228252619,154.20120308245689
6.04115456,0.9988203641613,154.07279651576283
6.043441152,0.998916943147381,153.9435763541572
6.045727232,0.9990820235985045,153.81257832504159
6.048013824,0.999305120265055,153.67880364677725
6.050299904,0.9995722886559831,153.54151437905097
6.052586496,0.9998666247629029,153.40025210223422
6.054872576,1.0001692833745093,153.25472830727662
6.057159168,1.0004612058933164,153.1049325196399
6.05944576,1.0007239094359974,152.95123051816225
6.06173184,1.0009409921782642,152.7941036349806
6.064018432,1.0010984781732741,152.63434539654915
6.066304512,1.001186416640774,152.4728709709644
6.068591104,1.0011993225327869,152.3107273380935
6.070877184,1.001136155301312,152.1490228215136
6.073163776,1.0010009639849016,151.9888531688439
6.075450368,1.0008023234683625,151.83113612023402
6.077736448,1.0005524278925724,151.67678174308028
6.08002304,1.0002673918291731,151.526356897403
6.08230912,0.9999649734731181,151.38028597642335
6.084595712,0.9996644240268819,151.2386368918997
6.086881792,0.9993846447216352,151.1013136478475
6.089168384,0.9991434710911852,150.96786499272318
6.091454464,0.998956283253237,150.8375905326228
6.093741056,0.9988349894402675,150.7096749570598
6.096027648,0.9987872328991082,150.5830732293024
6.098313728,0.9988162566886698,150.45667156069598
6.10060032,0.9989199043380127,150.32939397504651
6.1028864,0.9990921668960794,150.20016789854577
6.105172992,0.999321947996127,150.06812787566147
6.107459072,0.9995945793384662,149.93248610709273
6.109745664,0.9998928090360708,149.7927508376168
6.112032256,1.0001979462230348,149.64874811382526
6.114318336,1.0004905187373083,149.50046172337025
6.116604928,1.000752208958423,149.34817578502899
6.118891008,1.000966196366663,149.1926078177422
6.1211776,1.0011190005798773,149.0343912653479
6.12346368,1.0012010739018222,148.87454448178184
6.125750272,1.0012071306998869,148.71415770507
6.128036352,1.001136631575581,148.5542909926757
6.130322944,1.0009938877489208,148.3960544388337
6.132609536,1.0007882673296273,148.24035964468314
6.134895616,1.0005324732866112,148.08812612383332
6.137182208,1.0002424619800987,147.93993846248438
6.139468288,0.9999367605732598,147.79610514375702
6.14175488,0.9996346430453107,147.6568050707157
6.14404096,0.9993552623210106,147.52179903261106
6.146327552,0.999116432220398,147.39058323400715
6.148614144,0.9989331796287881,147.26258423834727
6.150900224,0.9988174012433895,147.136809942952
6.153186816,0.9987761812548823,147.01229159634178
6.155472896,0.9988125722467737,146.88787407262691
6.157759488,0.9989240242295414,146.76244810368433
6.160045568,0.9991036088005116,146.63502676707697
6.16233216,0.9993400755018325,146.50461902270925
6.16461824,0.9996182453057788,146.37049630651143
6.166904832,0.9999205669121347,146.23227956801256
6.169191424,1.0002279740192948,146.08970480261215
6.171477504,1.0005210817190697,145.9428165070133
6.173764096,1.0007810879584234,145.79199976526593
6.176050176,1.0009916791587392,145.6378795894532
6.178336768,1.0011396149783975,145.48117794142559
6.180622848,1.0012153621937343,145.3229248532379
6.18290944,1.0012141547547218,145.1642244945097
6.18519552,1.001135966740795,145.00614711591263
6.187482112,1.0009856047603374,144.84980385776726
6.189768704,1.0007727787553935,144.69616216702528
6.192054784,1.0005107086519374,144.54604181135554
6.194341376,1.0002158514775297,144.39997858991163
6.196627456,0.9999070456086339,144.25844026611676
6.198914048,0.999603627787425,144.1213606185765
6.201200128,0.9993248719143709,143.98865073782616
6.20348672,0.9990886418525586,143.85974784426645
6.205773312,0.9989098653592493,143.73390134933774
6.208059392,0.998799924808461,143.61028371326628
6.210345984,0.9987658807202815,143.48778479847732
6.212632064,0.998809858959903,143.36526695106062
6.214918656,0.9989292004056114,143.241654361652
6.217204736,0.9991164634289681,143.11588436446053
6.219491328,0.9993597773881365,142.98706569934978
6.221777408,0.9996435451337118,142.85446022881965
6.224064,0.9999498981050624,142.71767335619217
6.226350592,1.0002594427869158,142.5764333481845
6.228636672,1.0005526369853937,142.4309049765918
6.230923264,1.0008109571931774,142.28145486237796
6.233209344,1.0010178674349623,142.12870960956354
6.235495936,1.001160312675122,141.9734922650131
6.237782016,1.0012293609099137,141.81681285040966
6.240068608,1.001220491301725,141.65972644704877
6.2423552,1.0011343089401878,141.50340551037272
6.24464128,1.0009760138739214,141.34895144025177
6.246927872,1.0007558189061805,141.1972727068384
6.249213952,1.0004872406636351,141.0492137732805
6.251500544,1.0001876238282759,140.90536532465597
6.253786624,0.9998756472901614,140.76600836638636
6.256073216,0.9995711134383519,140.6312200152758
6.258359296,0.9992934305595244,140.50072392496685
6.260645888,0.9990601938750147,140.37401326398708
6.26293248,0.998886074085448,140.25036931148583
6.26521856,0.9987824936808719,140.12881977267202
6.267505152,0.9987557509607031,140.00829453470604
6.269791232,0.998807923672488,139.88765272354098
6.272077824,0.9989356172510249,139.76577190138738
6.274363904,0.9991305976062287,139.6416347161768
6.276650496,0.9993808826570812,139.51433108343025
6.278937088,0.9996703281854538,139.38313521471903
6.281223168,0.9999806799305024,139.24767279844846
6.28350976,1.0002923560514525,139.1077527972067
6.28579584,1.0005853093558439,138.96351426035403
6.288082432,1.0008413987569795,138.81534757942413
6.290368512,1.0010442474636734,138.66393625323758
6.292655104,1.0011809845144561,138.51014003026123
6.294941184,1.0012428489751501,138.35493497166755
6.297227776,1.0012260094793752,138.19946991895597
6.299514368,1.0011315134605632,138.04488276149462
6.301800448,1.0009650097282492,137.8922262645786
6.30408704,1.0007371703368326,137.7425437393618
6.30637312,1.0004623984772985,137.59656021066382
6.308659712,1.0001579852562301,137.45480310912993
6.310945792,0.9998430024472277,137.31763537020095
6.313232384,0.9995375693557319,137.18504223325152
6.315518464,0.9992611326471564,137.0567865457417
6.317805056,0.9990311658651814,136.93227432543904
6.320091648,0.9988625190733843,136.81071103929574
6.322377728,0.9987653953792914,136.69120470982728
6.32466432,0.9987466685970905,136.5725846579292
6.3269504,0.9988071772439503,136.45375479171722
6.329236992,0.9989433895611373,136.33357007940276
6.331523072,0.999146529244154,136.21094702857857
6.333809664,0.9994037728494884,136.08505546771923
6.336096256,0.9996987340280002,135.95523566074203
6.338382336,1.0000129229709276,135.82103534895296
6.340668928,1.0003264169363313,135.68236143818186
6.342955008,1.0006191514932872,135.5393151577471
6.3452416,1.0008727981236292,135.392395114135
6.34752768,1.0010711585167769,135.24226084168959
6.349814272,1.0012015547346773,135.08979650575182
6.352100352,1.0012559503210696,134.9360557363571
6.354386944,1.0012308261651295,134.7821692095332
6.356673536,1.001127295212961,134.62926462154405
6.358959616,1.0009524992367203,134.4784453779516
6.361246208,1.0007170324391939,134.33066873105057
6.363532288,1.0004357572257239,134.1866865475036
6.36581888,1.0001265078033537,134.04705654544713
6.36810496,0.9998086939558972,133.91205756671653
6.370391552,0.9995027395940984,133.78167179654957
6.372678144,0.9992277578030123,133.65554459677796
6.374964224,0.9990016617294596,133.53315896909618
6.377250816,0.998838345120091,133.41370134441155
6.379536896,0.9987485918872272,133.29618600525026
6.381823488,0.998738051262006,133.17942310221238
6.384109568,0.998807441714958,133.06229725722474
6.38639616,0.9989524740618679,132.94373149878496
6.38868224,0.9991639213131386,132.82257394441882
6.390968832,0.9994282307331712,132.69807564081324
6.393255424,0.9997290050486541,132.56950445407284
6.395541504,1.0000469771119556,132.43650543951222
6.397828096,1.0003619675902984,132.29894124972824
6.400114176,1.0006540891886504,132.157106447818
6.402400768,1.0009048844876878,132.0113457539852
6.404686848,1.0010981768810454,131.8624266873296
6.40697344,1.001222223003279,131.71127012444498
6.409260032,1.001268571026053,131.55891372442082
6.411546112,1.0012346535235257,131.40654619075096
6.413832704,1.0011222646873628,131.25529680678497
6.416118784,1.000938634610515,131.10627283601835
6.418405376,1.0006952720441356,130.9603467652472
6.420691456,1.000407619497828,130.81837816028252
6.422978048,1.0000934736943434,130.6808536089395
6.425264128,0.9997732335237659,130.54798740184884
6.42755072,0.9994667665480556,130.41973888473004
6.429837312,0.9991939256719836,130.29575237076202
6.432123392,0.9989718146624209,130.17550003720635
6.434409984,0.9988145208298833,130.058025665093
6.436696064,0.998732364262293,129.9423921763061
6.438982656,0.9987303602054819,129.82744121160783
6.441268736,0.9988089195829546,129.7120079433938
6.443555328,0.9989629313583401,129.59496286642135
6.44584192,0.9991828886424623,129.4752180320205
6.448128,0.9994545289313718,129.3520069667374
6.450414592,0.9997608507791018,129.22462151408385
6.452700672,1.0000823130377445,129.09274344771265
6.454987264,1.0003987410281032,128.9562884088282
6.457273344,1.000689990770863,128.81547656897254
6.459559936,1.0009374361659553,128.67081690741028
6.461846016,1.0011255392775475,128.5230718187429
6.464132608,1.0012423535134545,128.37314614221634
6.4664192,1.001280352287804,128.22220276241038
6.46870528,1.0012373772478143,128.07130916654353
6.470991872,1.0011157933325248,127.92168418829428
6.473277952,1.0009231714974116,127.77439878378567
6.475564544,1.0006719064551566,127.63036040360237
6.477850624,1.0003774548416433,127.49034443783566
6.480137216,1.000058958337238,127.35483740036747
6.482423296,0.9997361444860848,127.22406489207395
6.484709888,0.9994298116306621,127.09795511110626
6.48699648,0.9991591567492997,126.97608920466793
6.48928256,0.9989415270735953,126.85784052803997
6.491569152,0.9987908185662674,126.7423787607176
6.493855232,0.9987165094770807,126.62859082370039
6.496141824,0.9987235723943834,126.51540756378917
6.498427904,0.9988115527214564,126.40158129115031
6.500714496,0.998975006316313,126.28594644904105
6.503001088,0.999203478953777,126.16757882911952
6.505287168,0.9994824633443053,126.04554008730841
6.50757376,0.9997942259568372,125.91927175457349
6.50985984,1.0001192988269256,125.7884648257444
6.512146432,1.0004367783734471,125.652967753543
6.514432512,1.0007266203947411,125.51318818672667
6.516719104,1.0009705158382423,125.36955342750895
6.519005184,1.0011528573353503,125.2229392167762
6.521291776,1.0012622115923306,125.07422416705221
6.523578368,1.0012914565511841,124.92454938121698
6.525864448,1.0012389399216641,124.77512417909085
6.52815104,1.001107752651028,124.62706436825394
6.53043712,1.0009059942659908,124.48150722767807
6.532723712,1.0006466650248003,124.339310275118
6.535009792,1.000345895882645,124.20123374579188
6.537296384,1.0000226763703577,124.06775224170458
6.539582976,0.9996978151875213,123.93906540942847
6.541869056,0.9993916992017401,123.81501752950668
6.544155648,0.9991237175013556,123.69521899896252
6.546441728,0.998911030175252,123.57899041566236
6.54872832,0.9987671703180444,123.46543982804893
6.5510144,0.9987013320962683,123.35343937815723
6.553300992,0.9987177181957498,123.2419311770188
6.555587072,0.9988157248903725,123.1296237992706
6.557873664,0.9989886624948735,123.0153822707415
6.560160256,0.9992258437972513,122.8982487647043
6.562446336,0.9995121577031908,122.77734158002923
6.564732928,0.9998295009442438,122.65212013459147
6.567019008,1.0001577521588467,122.52222703664779
6.5693056,1.0004761069340038,122.38771094235064
6.57159168,1.000764190836398,122.24886431161374
6.573878272,1.001003976419727,122.10624830537746
6.576164864,1.0011802684377094,121.9606537866057
6.578450944,1.0012816505060982,121.81307935017196
6.580737536,1.0013018043269364,121.66470587303256
6.583023616,1.0012394225728045,121.5166623955158
6.585310208,1.0010981965837547,121.37017942462406
6.587596288,1.0008872704590253,121.22625004184518
6.58988288,1.000619624027723,121.08591140525559
6.59216896,1.0003124337021778,120.94975778950017
6.594455552,0.9999851968329404,120.81829260032805
6.596742144,0.9996580776641522,120.69161287617285
6.599028224,0.9993525901266384,120.56961412448331
6.601314816,0.9990876749686151,120.4518260238535
6.603600896,0.9988801260608462,120.33754001507037
6.605887488,0.9987436815482561,120.22582312599698
6.608173568,0.9986866997532522,120.11561032832965
6.61046016,0.9987130551876056,120.00570050660275
6.612746752,0.9988211488631188,119.89482558753608
6.615032832,0.9990038429694202,119.78193662035014
6.617319424,0.9992498688299298,119.66594572439075
6.619605504,0.9995436199818054,119.54609665130239
6.621892096,0.9998663567217781,119.42182504786057
6.624178176,1.000197535094519,119.2928314920411
6.626464768,1.0005163128664523,119.15920337447439
6.628750848,1.0008024030121538,119.02117863916648
6.63103744,1.0010377835241475,118.8794815276547
6.633324032,1.001207229930656,118.73488659058458
6.635610112,1.0013002962827355,118.58845921399555
6.637896704,1.0013108865748683,118.4412639660979
6.640182784,1.001238252330019,118.29462628908705
6.642469376,1.001086988498747,118.14964449381694
6.644755456,1.0008664419406321,118.00739386314021
6.647042048,1.0005908646182542,117.8688144952293
6.649328128,1.0002771915782636,117.73454184183481
6.65161472,0.9999456718794715,117.60502793858082
6.653901312,0.9996170586041245,117.48039087051762
6.656187392,0.999312450338424,117.36041072579718
6.658473984,0.9990509837933835,117.24460789217846
6.660760064,0.9988494978309694,117.13221348891656
6.663046656,0.9987207984726607,117.02232114373508
6.665332736,0.9986732517599936,116.91379162161621
6.667619328,0.9987096389414132,116.80536740423653
6.66990592,0.9988280493481887,116.69590746294756
6.672192,0.999020875701823,116.58425716001993
6.674478592,0.9992757916743592,116.46936514915973
6.676764672,0.9995769955902266,116.35048749800035
6.679051264,0.9999049367971569,116.22706587450259
6.681337344,1.0002388890668448,116.09890424206785
6.683623936,1.0005579469491677,115.96604206791345
6.685910016,1.000841568768287,115.82885398758835
6.688196608,1.001071915656252,115.68799740761823
6.6904832,1.0012343995067159,115.5443607873624
6.69276928,1.001318588743262,115.39897534521498
6.695055872,1.0013190979390791,115.25299528112284
6.697341952,1.0012359790362573,115.10764950561057
6.699628544,1.0010742930256742,114.96418801634464
6.701914624,1.0008442051826947,114.82355694031219
6.704201216,1.0005602835968195,114.68673090513481
6.706487808,1.0002403716173305,114.5543442924499
6.708773888,0.9999047941716869,114.42676411618494
6.71106048,0.9995749547859296,114.30404584444368
6.71334656,0.9992715894696041,114.18603534526606
6.715633152,0.999013987383904,114.07217844616945
6.717919232,0.9988188276924782,113.96167175905478
6.720205824,0.9986985049713373,113.8535432815003
6.722491904,0.9986605234016915,113.74660242407498
6.724778496,0.9987075651256285,113.639664713504
6.727065088,0.9988368499972906,113.53151755575719
6.729351168,0.9990397705624265,113.42097218829747
6.73163776,0.9993037856080921,113.30712149242343
6.73392384,0.9996120169556285,113.1891329476147
6.736210432,0.9999450581535833,113.06652454791492
6.738496512,1.0002816551295912,112.93908671976291
6.740783104,1.0006004091155336,112.80695976336887
6.743069696,1.0008811507967263,112.67052921238754
6.745355776,1.0011061255637272,112.53048094795606
6.747642368,1.0012610010286693,112.38771022261912
6.749928448,1.0013359383982292,112.24330129111574
6.75221504,1.0013261472373651,112.09848025131083
6.75450112,1.0012319208099552,111.95448375487747
6.756787712,1.001059563363358,111.81243041484967
6.759073792,1.0008197564004842,111.67342806746014
6.761360384,1.0005275899675607,111.53832931100783
6.763646976,1.0002015829740836,111.40775958271442
6.765933056,0.9998622019754161,111.28210900656877
6.768219648,0.9995313158201347,111.16136804829983
6.770505728,0.9992297144081247,111.04527835960148
6.77279232,0.9989765776352705,110.93328298293987
6.7750784,0.9987881391332151,110.82459475222477
6.777364992,0.9986764985292231,110.71816395142085
6.779651584,0.9986488628381894,110.61275908144019
6.781937664,0.9987067607128833,110.5072214665085
6.784224256,0.9988469676354128,110.40031365019192
6.786510336,0.9990602865347304,110.29085155420931
6.788796928,0.9993334090478239,110.17794300347802
6.791083008,0.9996490014244392,110.06074625485834
6.7933696,0.9999869326410034,109.93886145960485
6.79565568,1.0003256678014876,109.81211764009193
6.797942272,1.0006439338741717,109.68062066271378
6.800228864,1.0009213517127438,109.54486285716216
6.802514944,1.001140465168988,109.40557292893514
6.804801536,1.0012872624855151,109.26362622771742
6.807087616,1.0013523152734878,109.12018978941018
6.809374208,1.0013317460657734,108.97651090869758
6.811660288,1.001226413822813,108.83375741724764
6.81394688,1.0010432520773134,108.69314961952789
6.81623296,1.0007934729748087,108.5557138190833
6.818519552,1.0004930980386775,108.42233585300997
6.820806144,1.0001610356506914,108.29359818436625
6.823092224,0.9998181607901302,108.16979409201728
6.825378816,0.9994865442686889,108.0509575025302
6.827664896,0.9991870569117487,107.9367729138231
6.829951488,0.9989389632697843,107.82664642572153
6.832237568,0.9987577218301145,107.71969463794919
6.83452416,0.9986553277161044,107.61488730347335
6.836810752,0.9986380045612641,107.51099815190801
6.839096832,0.9987074498834092,107.40680286120664
6.841383424,0.9988589147393026,107.30101170175689
6.843669504,0.9990829094473449,107.19258064605094
6.845956096,0.9993649528950252,107.0804824679599
6.848242176,0.9996876472540233,106.96403410360784
6.850528768,1.0000302524125786,106.84281143979766
6.852814848,1.0003710604111768,106.71664378161408
6.85510144,1.0006882886975215,106.58572041715695
6.857388032,1.0009619481618541,106.45059170763687
6.859674112,1.001174715622523,106.3119788840633
6.861960704,1.0013129576444901,106.17083928691623
6.864246784,1.0013679475227855,106.02835149649775
6.866533376,1.0013360422854545,105.88574189053791
6.868819456,1.0012192050833515,105.74422217757056
6.871106048,1.0010249924806327,105.60500359345303
6.87339264,1.0007653047968057,105.46915701016243
6.87567872,1.0004567430289124,105.3374502693402
6.877965312,1.0001187713882238,105.21046907506636
6.880251392,0.9997728227359338,105.0885493947843
6.882537984,0.9994408228107451,104.97160803233614
6.884824064,0.9991438870103037,104.85925587673349
6.887110656,0.9989011327508317,104.75095612296163
6.889396736,0.9987276496865153,104.64569431011245
6.891683328,0.998634968293479,104.5424590043801
6.89396992,0.9986288869065292,104.44000482061404
6.896256,0.9987098290218319,104.3370475411018
6.898542592,0.9988727486609219,104.23233704800936
6.900828672,0.999107321899274,104.1248253489277
6.903115264,0.9993987685029175,104.01350587736825
6.905401344,0.9997283515627532,103.89772522050848
6.907687936,1.0000753345108504,103.77704708569419
6.909974528,1.0004177166523753,103.65138765186599
6.912260608,1.0007335379612612,103.5210179605752
6.9145472,1.0010028863060891,103.38644369094298
6.91683328,1.0012087507477396,103.24844751799722
6.919119872,1.0013379683826547,103.10808398980622
6.921405952,1.001382246499875,102.96646670289506
6.923692544,1.0013389378899524,102.82488015086686
