freq,mag,phase
6.0,0.9999933634665747,84.48041589285091
6.008,0.9999936078543533,84.34439365183177
6.016,0.9999938447488458,84.2083386530166
6.024,0.9999940742821534,84.07225085141329
6.032,0.999994296584846,83.93613020214434
6.04,0.9999945117859741,83.79997666044706
6.048,0.9999947200130771,83.6637901816738
6.056,0.9999949213921956,83.52757072129204
6.064,0.999995116047882,83.39131823488468
6.072,0.9999953041032094,83.25503267815012
6.08,0.999995485679784,83.11871400690252
6.088,0.9999956608977545,82.9823621770719
6.096,0.9999958298758228,82.8459771447044
6.104,0.9999959927312546,82.70955886596232
6.112,0.9999961495798897,82.57310729712441
6.12,0.9999963005361524,82.4366223945859
6.128,0.999996445713062,82.30010411485881
6.136,0.9999965852222433,82.16355241457197
6.144,0.9999967191739368,82.02696725047126
6.152,0.999996847677009,81.89034857941965
6.16,0.9999969708389628,81.7536963583975
6.168,0.9999970887659478,81.61701054450259
6.176,0.9999972015627707,81.48029109495022
6.184,0.9999973093329055,81.34353796707352
6.192,0.9999974121785038,81.20675111832334
6.2,0.9999975102004044,81.06993050626868
6.208,0.9999976034981449,80.93307608859647
6.216,0.9999976921699709,80.796187823112
6.224,0.9999977763128453,80.65926566773886
6.232,0.9999978560224608,80.52230958051912
6.24,0.9999979313932481,80.38531951961345
6.248,0.9999980025183866,80.24829544330116
6.256,0.9999980694898144,80.11123730998042
6.264,0.9999981323982385,79.97414507816835
6.272,0.9999981913331446,79.83701870650096
6.28,0.999998246382808,79.69985815373347
6.288,0.9999982976343013,79.56266337874031
6.296,0.9999983451735077,79.42543434051517
6.304,0.9999983890851276,79.28817099817115
6.312,0.9999984294526909,79.15087331094087
6.32,0.999998466358566,79.01354123817647
6.328,0.9999984998839692,78.87617473934979
6.336,0.9999985301089757,78.7387737740524
6.344,0.9999985571125278,78.60133830199564
6.352,0.9999985809724463,78.46386828301077
6.36,0.9999986017654398,78.326363677049
6.368,0.9999986195671129,78.18882444418159
6.376,0.999998634451979,78.05125054459984
6.384,0.9999986464934666,77.91364193861524
6.392,0.9999986557639317,77.77599858665951
6.4,0.9999986623346652,77.6383204492846
6.408,0.9999986662759044,77.50060748716287
6.416,0.9999986676568412,77.36285966108692
6.424,0.9999986665456323,77.22507693196992
6.432,0.9999986630094084,77.08725926084546
6.44,0.9999986571142839,76.94940660886765
6.448,0.9999986489253665,76.81151893731116
6.456,0.9999986385067658,76.6735962075713
6.464,0.9999986259216043,76.53563838116395
6.472,0.9999986112320245,76.39764541972572
6.48,0.9999985944992003,76.2596172850139
6.4879999999999995,0.9999985757833453,76.12155393890654
6.496,0.9999985551437222,75.98345534340237
6.504,0.9999985326386519,75.84532146062101
6.5120000000000005,0.9999985083255228,75.70715225280274
6.52,0.999998482260801,75.56894768230883
6.5280000000000005,0.9999984545000373,75.4307077116212
6.536,0.9999984250978783,75.29243230334278
6.5440000000000005,0.999998394108074,75.15412142019721
6.552,0.9999983615834884,75.01577502502914
6.5600000000000005,0.999998327576107,74.87739308080394
6.568,0.9999982921370466,74.73897555060799
6.5760000000000005,0.9999982553165643,74.6005223976484
6.584,0.9999982171640662,74.46203358525332
6.592,0.9999981777281155,74.32350907687157
6.6,0.9999981370564435,74.18494883607298
6.608,0.9999980951959557,74.04635282654813
6.616,0.9999980521927428,73.9077210121085
6.624,0.9999980080920883,73.76905335668634
6.632,0.9999979629384775,73.63034982433477
6.64,0.9999979167756059,73.49161037922762
6.648,0.9999978696463884,73.35283498565953
6.656,0.9999978215929672,73.21402360804584
6.664,0.9999977726567219,73.07517621092259
6.672,0.9999977228782749,72.93629275894662
6.68,0.999997672297504,72.79737321689527
6.688,0.9999976209535472,72.65841754966655
6.696,0.9999975688848134,72.51942572227911
6.704,0.99999751612899,72.38039769987206
6.712,0.999997462723051,72.24133344770509
6.72,0.9999974087032658,72.10223293115826
6.728,0.9999973541052073,71.96309611573211
6.736,0.99999729896376,71.82392296704757
6.744,0.9999972433131289,71.68471345084582
6.752,0.9999971871868462,71.54546753298835
6.76,0.9999971306177808,71.40618517945687
6.768,0.9999970736381458,71.26686635635323
6.776,0.9999970162795067,71.1275110298994
6.784,0.999996958572789,70.98811916643734
6.792,0.9999969005482868,70.84869073242908
6.8,0.9999968422356705,70.70922569445646
6.808,0.9999967836639947,70.56972401922127
6.816,0.9999967248617052,70.43018567354497
6.824,0.9999966658566483,70.29061062436882
6.832,0.9999966066760778,70.1509988387537
6.84,0.9999965473466622,70.01135028387998
6.848,0.9999964878944938,69.87166492704762
6.856,0.9999964283450946,69.73194273567589
6.864,0.9999963687234253,69.59218367730347
6.872,0.9999963090538924,69.45238771958822
6.88,0.9999962493603555,69.31255483030715
6.888,0.9999961896661346,69.17268497735643
6.896,0.9999961299940185,69.03277812875112
6.904,0.9999960703662714,68.89283425262519
6.912,0.9999960108046404,68.75285331723146
6.92,0.9999959513303623,68.61283529094139
6.928,0.9999958919641728,68.4727801422451
6.936,0.9999958327263111,68.33268783975119
6.944,0.9999957736365286,68.19255835218671
6.952,0.9999957147140957,68.05239164839696
6.96,0.9999956559778096,67.91218769734552
6.968,0.9999955974460003,67.77194646811401
6.976,0.9999955391365377,67.63166792990208
6.984,0.9999954810668392,67.49135205202725
6.992,0.9999954232538766,67.35099880392484
7.0,0.9999953657141822,67.21060815514782
7.008,0.9999953084638568,67.0701800753667
7.016,0.9999952515185749,66.92971453436942
7.024,0.9999951948935933,66.78921150206128
7.032,0.999995138603756,66.64867094846475
7.04,0.9999950826635026,66.50809284371937
7.048,0.9999950270868736,66.36747715808164
7.056,0.9999949718875172,66.22682386192491
7.064,0.9999949170786966,66.08613292573925
7.072,0.9999948626732954,65.94540432013127
7.08,0.9999948086838251,65.80463801582405
7.088,0.9999947551224301,65.66383398365701
7.096,0.9999947020008957,65.52299219458577
7.104,0.9999946493306533,65.38211261968196
7.112,0.9999945971227867,65.24119523013316
7.12,0.9999945453880388,65.10023999724274
7.128,0.9999944941368171,64.95924689242976
7.136,0.9999944433792008,64.81821588722875
7.144,0.9999943931249456,64.6771469532896
7.152,0.999994343383491,64.5360400623775
7.16,0.9999942941639651,64.39489518637262
7.168,0.999994245475191,64.25371229727018
7.176,0.9999941973256935,64.11249136718017
7.184,0.999994149723703,63.97123236832719
7.192,0.9999941026771639,63.82993527305041
7.2,0.9999940561937379,63.6886000538033
7.208,0.9999940102808103,63.54722668315357
7.216,0.9999939649454969,63.40581513378299
7.224,0.9999939201946488,63.26436537848717
7.232,0.999993876034857,63.12287739017557
7.24,0.9999938324724592,62.98135114187112
7.248,0.9999937895135452,62.839786606710284
7.256,0.9999937471639607,62.69818375794276
7.264,0.9999937054293155,62.556542568931356
7.272,0.9999936643149857,62.41486301315184
7.28,0.9999936238261213,62.27314506419282
7.288,0.9999935839676504,62.13138869575547
7.296,0.9999935447442838,61.98959388165349
7.304,0.9999935061605219,61.84776059581287
7.312,0.9999934682206578,61.70588881227172
7.32,0.9999934309287833,61.56397850518017
7.328,0.9999933942887945,61.42202964880012
7.336,0.9999933583043948,61.28004221750513
7.344,0.9999933229791018,61.138016185780224
7.352,0.9999932883162508,60.99595152822172
7.36,0.9999932543190007,60.853848219537106
7.368,0.9999932209903367,60.71170623454477
7.376,0.9999931883330779,60.56952554817392
7.384,0.9999931563498794,60.42730613546439
7.392,0.999993125043238,60.28504797156643
7.4,0.9999930944154966,60.14275103174056
7.4079999999999995,0.9999930644688485,60.00041529135738
7.416,0.9999930352053423,59.858040725897375
7.4239999999999995,0.9999930066268857,59.71562731095084
7.432,0.9999929787352503,59.57317502221757
7.4399999999999995,0.9999929515320749,59.430683835506734
7.448,0.9999929250188713,59.288153726736724
7.4559999999999995,0.9999928991970273,59.14558467193494
7.464,0.9999928740678115,59.00297664723757
7.4719999999999995,0.9999928496323767,58.86032962888956
7.48,0.9999928258917645,58.7176435932442
7.4879999999999995,0.9999928028469091,58.57491851676322
7.496,0.9999927804986412,58.43215437601628
7.504,0.9999927588476916,58.289351147681145
7.5120000000000005,0.9999927378946962,58.146508808543146
7.52,0.9999927176401981,58.00362733549534
7.5280000000000005,0.9999926980846526,57.860706705537986
7.536,0.9999926792284305,57.71774689577865
7.5440000000000005,0.9999926610718214,57.5747478834318
7.552,0.9999926436150378,57.43170964581882
7.5600000000000005,0.9999926268582185,57.2886321603676
7.568,0.999992610801432,57.145515404612546
7.5760000000000005,0.9999925954446794,57.00235935619428
7.584,0.9999925807878998,56.85916399285953
7.5920000000000005,0.9999925668309708,56.71592929246076
7.6,0.9999925535737137,56.57265523295631
7.6080000000000005,0.9999925410158964,56.42934179240982
7.616,0.9999925291572359,56.2859889489904
7.6240000000000006,0.9999925179974031,56.14259668097213
7.632,0.9999925075360232,55.99916496673415
7.640000000000001,0.9999924977726818,55.85569378476019
7.648,0.9999924887069259,55.712183113638666
7.656000000000001,0.9999924803382668,55.56863293206221
7.664,0.9999924726661846,55.42504321882771
7.672,0.9999924656901293,55.28141395283601
7.68,0.9999924594095246,55.137745113091704
7.688,0.9999924538237703,54.99403667870298
7.696,0.9999924489322454,54.85028862888145
7.704,0.9999924447343099,54.706500942941915
7.712,0.9999924412293084,54.56267360030218
7.72,0.9999924384165726,54.41880658048291
7.728,0.9999924362954224,54.27489986310735
7.736,0.99999243486517,54.13095342790124
7.744,0.999992434125122,53.98696725469256
7.752,0.999992434074581,53.842941323411296
7.76,0.9999924347128483,53.69887561408938
7.768,0.999992436039227,53.55477010686038
7.776,0.9999924380530228,53.41062478195933
7.784,0.9999924407535473,53.26643961972261
7.792,0.9999924441401192,53.12221460058768
7.8,0.9999924482120676,52.97794970509291
7.808,0.9999924529687326,52.83364491387742
7.816,0.9999924584094685,52.68930020768082
7.824,0.9999924645336453,52.544915567343125
7.832,0.9999924713406496,52.400490973804445
7.84,0.9999924788298886,52.25602640810491
7.848,0.9999924870007902,52.11152185138439
7.856,0.9999924958528047,51.96697728488237
7.864,0.9999925053854081,51.8223926899377
7.872,0.9999925155981018,51.677768047988515
7.88,0.9999925264904148,51.53310334057188
7.888,0.9999925380619071,51.38839854932378
7.896,0.999992550312168,51.243653655978804
7.904,0.9999925632408202,51.098868642370036
7.912,0.9999925768475199,50.95404349042882
7.92,0.999992591131959,50.80917818218461
7.928,0.9999926060938653,50.664272699764744
7.936,0.9999926217330053,50.51932702539432
7.944,0.9999926380491834,50.374341141395945
7.952,0.999992655042246,50.2293150301896
7.96,0.9999926727120799,50.084248674292446
7.968,0.9999926910586142,49.93914205631861
7.976,0.9999927100818224,49.79399515897908
7.984,0.9999927297817229,49.6488079650814
7.992,0.9999927501583791,49.50358045752964
8.0,0.9999927712119008,49.35831261932408
8.008,0.9999927929424458,49.21300443356115
8.016,0.9999928153502207,49.0676558834331
8.024000000000001,0.9999928384354798,48.92226695222801
8.032,0.9999928621985291,48.77683762332949
8.04,0.9999928866397237,48.6313678802165
8.048,0.9999929117594707,48.48585770646318
8.056000000000001,0.9999929375582289,48.3403070857388
8.064,0.9999929640365102,48.19471600180743
8.072,0.9999929911948782,48.049084438527814
8.08,0.9999930190339517,47.903412379853144
8.088000000000001,0.9999930475544024,47.7576998098311
8.096,0.9999930767569569,47.61194671260346
8.104,0.9999931066423965,47.466153072405945
8.112,0.9999931372115576,47.320318873568134
8.120000000000001,0.9999931684653326,47.17444410051331
8.128,0.999993200404669,47.02852873775825
8.136,0.9999932330305702,46.88257276991301
8.144,0.9999932663440962,46.73657618168079
8.152000000000001,0.9999933003463634,46.59053895785784
8.16,0.9999933350385438,46.444461083333294
8.168,0.9999933704218665,46.29834254308882
8.176,0.9999934064976168,46.15218332219869
8.184000000000001,0.9999934432671365,46.00598340582948
8.192,0.9999934807318233,45.85974277924008
8.2,0.9999935188931321,45.713461427781226
8.208,0.9999935577525733,45.56713933689561
8.216000000000001,0.9999935973117133,45.42077649211769
8.224,0.9999936375721746,45.27437287907347
8.232,0.9999936785356349,45.1279284834803
8.24,0.9999937202038275,44.98144329114684
8.248000000000001,0.9999937625785399,44.83491728797284
8.256,0.9999938056616151,44.688350459949056
8.264,0.9999938494549496,44.54174279315699
8.272,0.9999938939604941,44.39509427376877
8.280000000000001,0.9999939391802524,44.24840488804712
8.288,0.9999939851162807,44.101674622345136
8.296,0.999994031770688,43.95490346310606
8.304,0.9999940791456349,43.8080913968632
8.312,0.9999941272433334,43.66123841023992
8.32,0.999994176066045,43.51434448994924
8.328,0.9999942256160819,43.36740962279397
8.336,0.9999942758958049,43.22043379566628
8.344,0.9999943269076232,43.073416995547916
8.352,0.9999943786539945,42.92635920950968
8.36,0.9999944311374216,42.77926042471163
8.368,0.9999944843604545,42.6321206284027
8.376,0.9999945383256883,42.48493980792074
8.384,0.9999945930357612,42.33771795069228
8.392,0.9999946484933562,42.19045504423247
8.4,0.9999947047011974,42.04315107614489
8.408,0.9999947616620509,41.89580603412149
8.416,0.9999948193787227,41.74841990594238
8.424,0.9999948778540587,41.60099267947583
8.432,0.9999949370909424,41.45352434267799
8.44,0.9999949970922941,41.30601488359298
8.448,0.9999950578610712,41.15846429035248
8.456,0.9999951194002651,41.01087255117598
8.464,0.9999951817129007,40.863239654370254
8.472,0.9999952448020358,40.71556558832965
8.48,0.9999953086707587,40.56785034153567
8.488,0.9999953733221886,40.420093902557014
8.496,0.9999954387594722,40.27229626004938
8.504,0.999995504985784,40.124457402755525
8.512,0.9999955720043248,39.976577319504884
8.52,0.9999956398183191,39.82865599921376
8.528,0.9999957084310147,39.68069343088496
8.536,0.9999957778456819,39.532689603607935
8.544,0.9999958480656106,39.384644506558445
8.552,0.9999959190941096,39.236558128998695
8.56,0.9999959909345052,39.08843046027697
8.568,0.9999960635901395,38.94026148982784
8.576,0.9999961370643684,38.792051207171774
8.584,0.999996211360561,38.64379960191533
8.592,0.9999962864820977,38.495506663750774
8.6,0.9999963624323679,38.34717238245628
8.608,0.9999964392147688,38.19879674789554
8.616,0.9999965168327046,38.05037975001803
8.624,0.9999965952895835,37.90192137885854
8.632,0.999996674588817,37.753421624537445
8.64,0.9999967547338171,37.60488047726037
8.648,0.9999968357279961,37.45629792731826
8.656,0.9999969175747632,37.30767396508718
8.664,0.9999970002775249,37.15900858102842
8.672,0.9999970838396802,37.01030176568819
8.68,0.9999971682646219,36.861553509697764
8.688,0.9999972535557328,36.71276380377322
8.696,0.9999973397163844,36.56393263871556
8.704,0.9999974267499352,36.415060005410446
8.712,0.9999975146597292,36.266145894828355
8.72,0.9999976034490933,36.11719029802424
8.728,0.9999976931213355,35.9681932061378
8.736,0.9999977836797436,35.81915461039306
8.744,0.9999978751275825,35.670074502098664
8.752,0.9999979674680934,35.52095287264748
8.76,0.9999980607044907,35.37178971351689
8.768,0.9999981548399599,35.22258501626835
8.776,0.9999982498776575,35.0733387725478
8.784,0.9999983458207066,34.924050974085105
8.792,0.9999984426721967,34.77472161269447
8.8,0.9999985404351811,34.625350680274025
8.808,0.9999986391126745,34.47593816880607
8.815999999999999,0.999998738707652,34.32648407035681
8.824,0.9999988392230456,34.17698837707642
8.832,0.9999989406617436,34.02745108119904
8.84,0.999999043026588,33.87787217504266
8.847999999999999,0.9999991463203716,33.7282516510091
8.856,0.9999992505458382,33.57858950158396
8.864,0.9999993557056774,33.42888571933668
8.872,0.999999461802526,33.27914029692043
8.879999999999999,0.9999995688389627,33.12935322707204
8.888,0.999999676817508,32.97952450261202
8.896,0.9999997857406222,32.82965411644463
8.904,0.9999998956107015,32.67974206155772
8.911999999999999,0.9999999999999999,32.529788331022694
8.92,1.0,32.379792917994585
8.928,0.9999999999999999,32.22975581571201
8.936,0.9999999999999998,32.07967701749721
8.943999999999999,1.0,31.929556516755817
8.952,1.0,31.779394306977032
8.96,0.9999999999999999,31.62919038173364
8.968,1.0,31.47894473468188
8.975999999999999,1.0,31.328657359561475
8.984,1.0,31.178328250195598
8.992,1.0,31.027957400490973
9.0,1.0,30.87754480443776
9.008,1.0,30.72709045610961
9.016,1.0,30.57659434966356
9.024000000000001,1.0,30.426056479340218
9.032,1.0,30.275476839463686
9.04,0.9999999999999999,30.12485542444143
9.048,1.0000000000000002,29.97419222876442
9.056000000000001,1.0,29.8234872470072
9.064,1.0,29.672740473827798
9.072,0.9999999999999999,29.521951903967658
9.08,1.0,29.37112153225179
9.088000000000001,1.0,29.220249353588773
9.096,0.9999999999999998,29.069335362970747
9.104,0.9999999999999999,28.918379555473365
9.112,1.0,28.767381926255815
9.120000000000001,1.0,28.61634247056101
9.128,0.9999999999999999,28.465261183715466
9.136,0.9999999999999999,28.31413806112929
9.144,0.9999999999999999,28.162973098296213
9.152000000000001,1.0,28.0117662907938
9.16,1.0,27.860517634283294
9.168,0.9999999999999999,27.709227124509646
9.176,1.0,27.55789475730155
9.184000000000001,1.0,27.40652052857164
9.192,1.0,27.255104434316358
9.2,1.0,27.103646470615963
9.208,1.0,26.952146633634637
9.216000000000001,0.9999999999999999,26.80060491962057
9.224,0.9999999999999999,26.649021324905977
9.232,0.9999999999999998,26.49739584590701
9.24,1.0,26.345728479123885
9.248000000000001,1.0,26.194019221141012
9.256,0.9999999999999999,26.04226806862697
9.264,1.0,25.89047501833445
9.272,1.0,25.73864006710042
9.280000000000001,1.0,25.586763211846186
9.288,0.9999999999999999,25.43484444957739
9.296,0.9999999999999998,25.28288377738405
9.304,1.0,25.130881192440565
9.312000000000001,1.0,24.97883669200595
9.32,1.0,24.826750273423748
9.328,1.0,24.674621934122055
9.336,1.0,24.522451671613567
9.344,0.9999999999999999,24.370239483495894
9.352,0.9999999999999999,24.217985367451217
9.36,1.0,24.065689321246683
9.368,1.0,23.91335134273424
9.376,1.0,23.760971429850887
9.384,1.0,23.60854958061853
9.392,0.9999999999999999,23.456085793144243
9.4,0.9999999999999999,23.303580065620153
9.408,1.0,23.15103239632369
9.416,1.0,22.998442783617456
9.424,1.0,22.845811225949486
9.432,1.0,22.693137721853105
9.44,1.0000000000000002,22.540422269947236
9.448,1.0,22.38766486893621
9.456,1.0,22.23486551761009
9.464,1.0,22.08202421484451
9.472,0.9999999999999999,21.929140959600954
9.48,1.0,21.776215750926617
9.488,1.0,21.623248587954716
9.496,0.9999999999999999,21.470239469904286
9.504,1.0,21.31718839608054
9.512,1.0,21.164095365874683
9.52,0.9999999999999999,21.01096037876423
9.528,1.0,20.857783434312836
9.536,0.9999999999999999,20.70456453217059
9.544,0.9999999999999999,20.551303672073924
9.552,1.0,20.398000853845826
9.56,1.0,20.24465607739577
9.568,0.9999999999999999,20.091269342719965
9.576,0.9999999999999999,19.93784064990126
9.584,1.0,19.784369999109384
9.592,1.0,19.63085739060085
9.6,0.9999999999999999,19.477302824719214
9.608,1.0,19.323706301894976
9.616,1.0,19.170067822645876
9.624,1.0,19.016387387576696
9.632,0.9999999999999999,18.86266499737962
9.64,1.0,18.708900652834075
9.648,1.0,18.555094354807032
9.656,1.0,18.401246104252824
9.664,1.0,18.247355902213528
9.672,1.0,18.09342374981876
9.68,1.0,17.93944964828599
9.688,0.9999999999999999,17.78543359892039
9.696,0.9999999999999999,17.631375603115178
9.704,1.0,17.477275662351403
9.712,1.0,17.323133778198336
9.72,1.0,17.168949952313223
9.728,0.9999999999999999,17.01472418644169
9.736,0.9999999999999999,16.860456482417494
9.744,1.0,16.70614684216291
9.752,1.0,16.551795267688536
9.76,1.0,16.397401761093636
9.768,1.0,16.2429663245659
9.776,1.0,16.088488960381873
9.784,1.0,15.93396967090669
9.792,1.0,15.779408458594459
9.8,0.9999999999999999,15.624805325988047
9.808,1.0,15.470160275719424
9.816,1.0,15.315473310509477
9.824,1.0,15.16074443316833
9.832,1.0,15.00597364659518
