freq,mag,phase
6.0,1.0001810677048284,96.28679657687128
6.002286592,1.0001034894124816,96.10632398612556
6.004572672,1.0000196175110945,95.92702803688596
6.006859264,0.9999348270198609,95.7489712455346
6.009145344,0.9998541814587267,95.57211492157548
6.011431936,0.9997827648419245,95.39639434806642
6.013718016,0.999725056090516,95.22162213871685
6.016004608,0.999684941354559,95.0475520408628
6.018290688,0.999664653117383,94.87395908078035
6.02057728,0.9996656101456219,94.7005188872648
6.022863872,0.9996878241550272,94.52692120172098
6.025149952,0.9997297852888736,94.35287517026968
6.027436544,0.999788891876087,94.17812078090863
6.029722624,0.9998613815947565,94.0024268713508
6.032009216,0.9999428773253353,93.82560336800435
6.034295296,1.0000279733305124,93.64762149579285
6.036581888,1.0001114909651854,93.46842989325627
6.03886848,1.0001880687744904,93.28807604401734
6.04115456,1.000253040117998,93.1067164392322
6.043441152,1.0003021686473599,92.92455606527976
6.045727232,1.0003323268962354,92.74182124695523
6.048013824,1.0003417812966362,92.55882892879029
6.050299904,1.0003297182310489,92.37586371623757
6.052586496,1.0002970602243346,92.19322679234907
6.054872576,1.0002459030278774,92.01120241901323
6.057159168,1.000179169431372,91.83007061335041
6.05944576,1.0001012739154793,91.65000266625546
6.06173184,1.0000172182907046,91.47110451800567
6.064018432,0.9999320226514246,91.29343859865348
6.066304512,0.9998512186752964,91.11703487924908
6.068591104,0.999779972636275,90.94171070017907
6.070877184,0.9997225529033646,90.76735342872831
6.073163776,0.9996828085346076,90.59370230327914
6.075450368,0.9996630963012606,90.42050767594192
6.077736448,0.9996647489627007,90.24745615860554
6.08002304,0.9996876168612451,90.07424312351046
6.08230912,0.9997303042351184,89.90056993613348
6.084595712,0.9997901066223129,89.72616348692786
6.086881792,0.9998632967241823,89.55081768063526
6.089168384,0.9999451716083344,89.37436583411001
6.091454464,1.0000306914250419,89.19670709947965
6.093741056,1.0001143933727374,89.0178350196529
6.096027648,1.0001909712371821,88.83781063143863
6.098313728,1.000255777803105,88.65679923514061
6.10060032,1.0003045467871037,88.474963918584
6.1028864,1.0003342367368553,88.2925623895107
6.105172992,1.0003429564033743,88.10992687842821
6.107459072,1.000330274247836,87.92731904734282
6.109745664,1.000296909265223,87.74506211044233
6.112032256,1.0002448596281837,87.56342625009168
6.114318336,1.0001776208903748,87.38267449609559
6.116604928,1.0000991230654126,87.20298422109379
6.118891008,1.0000145936182152,87.0245100740463
6.1211776,0.9999291775494654,86.847275549643
6.12346368,0.9998483170855753,86.67124623895555
6.125750272,0.9997771504371928,86.49634880191688
6.128036352,0.999720020149615,86.32238597984721
6.130322944,0.9996806582420638,86.14916053498612
6.132609536,0.9996615616096012,85.97635060559615
6.134895616,0.9996638980115851,85.8037010031996
6.137182208,0.9996874713023438,85.63085563039384
6.139468288,0.9997309609180691,85.45754793982493
6.14175488,0.9997913921593617,85.28349474977378
6.14404096,0.9998652287273004,85.10850771031353
6.146327552,0.9999476408548506,84.93236958971164
6.148614144,1.0000334281976497,84.75504667945737
6.150900224,1.000117311308545,84.57651866441371
6.153186816,1.0001939294552051,84.39681236925189
6.155472896,1.0002585192340843,84.21611843226498
6.157759488,1.0003068295803503,84.0346160197784
6.160045568,1.0003360190799775,83.8525711003684
6.16233216,1.0003442209960258,83.67027073704614
6.16461824,1.000330767627033,83.48799849620386
6.166904832,1.0002966257285795,83.30611632437942
6.169191424,1.0002438716646465,83.12487738990596
6.171477504,1.000175882318412,82.94449193836833
6.173764096,1.0000969065480467,82.76521908717528
6.176050176,1.0000118876937236,82.58712275529967
6.178336768,0.9999262716585703,82.41028135335266
6.180622848,0.9998452343316638,82.23468176487745
6.18290944,0.9997741422343766,82.06018843762615
6.18519552,0.9997173360874047,81.88663417556766
6.187482112,0.9996784899558988,81.7137996833655
6.189768704,0.9996598608544562,81.54138227408515
6.192054784,0.9996629627160071,81.36911262649619
6.194341376,0.9996872883867949,81.19664351882776
6.196627456,0.9997314511006222,81.0236888364728
6.198914048,0.9997927263565847,80.85000836337444
6.201200128,0.9998671229495659,80.67533557123163
6.20348672,0.9999500915013892,80.49955030980743
6.205773312,1.0000362787393329,80.32254454108866
6.208059392,1.0001203645604597,80.14432349983312
6.210345984,1.0001969374439155,79.96493790095396
6.212632064,1.0002612513449312,79.78456631171538
6.214918656,1.0003092858852096,79.6034099465955
6.217204736,1.0003379136969335,79.42167695819955
6.219491328,1.0003454533778673,79.23970834749072
6.221777408,1.0003312839625955,79.05779466956092
6.224064,1.000296298794981,78.87626121115665
6.226350592,1.0002428578916387,78.6953758882092
6.228636672,1.0001741094641916,78.51539220424115
6.230923264,1.0000946112108935,78.3364971479964
6.233209344,1.0000091737607577,78.15881751317112
6.235495936,0.999923266310251,77.98238116449086
6.237782016,0.9998421765140815,77.8071696897085
6.240068608,0.9997711215436625,77.63307655341711
6.2423552,0.9997146994976661,77.45992852434357
6.24464128,0.9996762445014357,77.28748264047836
6.246927872,0.9996583196406472,77.11545935117893
6.249213952,0.9996620481384207,76.94355827185802
6.251500544,0.9996871768427412,76.7714577581042
6.253786624,0.9997321922896895,76.59886092032946
6.256073216,0.9997940777665397,76.42550709690052
6.258359296,0.9998691832742626,76.25118023598705
6.260645888,0.9999525781744124,76.0757133493939
6.26293248,1.0000391797887542,75.8990213539777
6.26521856,1.0001233690534672,75.72111316695592
6.267505152,1.0001999345520245,75.54205342818376
6.269791232,1.0002640865395285,75.3619967506869
6.272077824,1.0003116786432806,75.18112114964266
6.274363904,1.0003398202233782,74.99973355603497
6.276650496,1.0003466384561044,74.81809185792474
6.278937088,1.0003316817865704,74.63653065846117
6.281223168,1.0002960555034475,74.45534113071517
6.28350976,1.0002417333800866,74.27482684217358
6.28579584,1.0001723559872024,74.09520585974192
6.288082432,1.0000921460349317,73.91669701752383
6.290368512,1.0000063288433694,73.73941362313275
6.292655104,0.99992013752188,73.56337011426143
6.294941184,0.999838970903061,73.38856440674293
6.297227776,0.999768112756776,73.21487847947982
6.299514368,0.9997119443759381,73.04210316080054
6.301800448,0.9996740026997327,72.87004691931396
6.30408704,0.9996567209389908,72.69839818195712
6.30637312,0.9996611688166321,72.52685702986624
6.308659712,0.9996870946817693,72.35512592023886
6.310945792,0.9997328328165104,72.18286921367114
6.313232384,0.9997955014334952,72.00984478040168
6.315518464,0.999871293486189,71.83583695279826
6.317805056,0.999955235627487,71.66069621404978
6.320091648,1.0000421043558365,71.48431819714985
6.322377728,1.0001264383135309,71.30669251376982
6.32466432,1.000203035169781,71.12794152464004
6.3269504,1.0002669313942207,70.94818172174531
6.329236992,1.0003141233802717,70.76762328166372
6.331523072,1.0003415800664515,70.58653368958397
6.333809664,1.0003477192076589,70.40523058391794
6.336096256,1.000332035493291,70.22398871447282
6.338382336,1.000295510250777,70.04315825710842
6.340668928,1.0002404714720383,69.86299647295499
6.342955008,1.0001703716486863,69.68375656481479
6.3452416,1.0000896941820479,69.5056155943956
6.34752768,1.0000032869441786,69.3287024848134
6.349814272,0.9999168642065288,69.15306326296108
6.352100352,0.9998357071859488,68.97863993147307
6.354386944,0.9997649944520405,68.80534814640225
6.356673536,0.9997091609920331,68.63294697619796
6.358959616,0.9996716710227421,68.46128185795583
6.361246208,0.9996550427384711,68.2899998626579
6.363532288,0.9996602624044885,68.11882321126745
6.36581888,0.999686983693225,67.94743512616353
6.36810496,0.9997335332943137,67.77551552387474
6.370391552,0.9997970283934703,67.6028313201439
6.372678144,0.9998734029716884,67.42912185954734
6.374964224,0.9999579176538722,67.25427658868142
6.377250816,1.0000451206579792,67.07820274091092
6.379536896,1.0001296939728868,66.90088440721374
6.381823488,1.000206227945533,66.72241839512031
6.384109568,1.0002697594150516,66.54293886915941
6.38639616,1.000316531676868,66.36270411416903
6.38868224,1.0003434491505712,66.18191863148289
6.390968832,1.0003488700191634,66.00091059891038
6.393255424,1.0003324039279693,65.82001292542499
6.395541504,1.0002951091348624,65.63952279305524
6.397828096,1.0002392437787522,65.45969441383647
6.400114176,1.0001684208195594,65.28080407709407
6.402400768,1.0000870745373631,65.10303007176628
6.404686848,1.0000003056389821,64.92649186112433
6.40697344,0.999913593893465,64.75122351972139
6.409260032,0.999832363303216,64.57719741925081
6.411546112,0.9997617939415081,64.40426164729514
6.413832704,0.9997063514816275,64.23226232977761
6.416118784,0.9996694254709644,64.06096069329756
6.418405376,0.9996534878554719,63.8900549712725
6.420691456,0.9996593933663533,63.71922414119865
6.422978048,0.9996870127032543,63.54817692299934
6.425264128,0.9997343467627388,63.37656842370747
6.42755072,0.9997986207603894,63.204186724065906
6.429837312,0.9998756813689111,63.03080529816411
6.432123392,0.9999606837721917,62.85624024228406
6.434409984,1.0000482988017378,62.680444462253035
6.436696064,1.0001330354721907,62.503415810668145
6.438982656,1.0002095149129464,62.325217023698
6.441268736,1.0002728188727354,62.14606020148617
6.443555328,1.0003191746213063,61.966083691365604
6.44584192,1.0003454760433605,61.78560128553091
6.448128,1.0003501062240525,61.60490279022748
6.450414592,1.0003328108175735,61.42431935354879
6.452700672,1.0002946851186303,61.24414686508658
6.454987264,1.0002380109009048,61.06466519229069
6.457273344,1.0001665105294204,60.88612772419932
6.459559936,1.0000844820982024,60.708705274335685
6.461846016,0.9999972628430339,60.532532196525885
6.464132608,0.9999103579361528,60.35763723612753
6.4664192,0.9998290621066062,60.183977444192216
6.46870528,0.9997586578563755,60.011420150306726
6.470991872,0.9997035227109274,59.83979926255481
6.473277952,0.9996670988186539,59.66884386147295
6.475564544,0.999651876793058,59.49826908820052
6.477850624,0.9996586811209104,59.32780455755578
6.480137216,0.9996870500895061,59.157062856589924
6.482423296,0.9997351809518134,58.9857787014503
6.484709888,0.9998002728878984,58.813712967060894
6.48699648,0.9998779940885648,58.64060944199755
6.48928256,0.9999635675152251,58.46632765464033
6.491569152,1.0000515615612253,58.29081998952235
6.493855232,1.0001363621620516,58.114072304898485
6.496141824,1.000212725135695,57.93613592689368
6.498427904,1.0002758516557895,57.75722815444569
6.500714496,1.0003216773394372,57.57753040875724
6.503001088,1.0003473316409714,57.39735131043902
6.505287168,1.0003512480306813,57.21693825143951
6.50757376,1.0003331534555562,57.03665669706509
6.50985984,1.0002941699065122,56.856804828717024
6.512146432,1.0002366707268473,56.677641467211124
6.514432512,1.000164427073295,56.499437424231914
6.516719104,1.0000817125054877,56.322381149004364
6.519005184,0.9999941044710882,56.14655560158624
6.521291776,0.9999069014624441,55.97202119449266
6.523578368,0.9998256065641117,55.79872667019322
6.525864448,0.9997553438563533,55.62651822837204
6.52815104,0.9997006079234477,55.45525257850126
6.53043712,0.9996647756699267,55.284656557047455
6.532723712,0.9996502462968659,55.11444284021259
6.535009792,0.9996577668553134,54.944269341596296
6.537296384,0.9996870735017391,54.77384686162734
6.539582976,0.999736121021547,54.60289904856323
6.541869056,0.9998019189952317,54.4310819074468
6.544155648,0.9998803653762269,54.258278389426486
6.546441728,0.9999664741063924,54.08427186138903
6.54872832,1.000054777616247,53.909023042384526
6.5510144,1.0001397512349186,53.73251137452957
6.553300992,1.0002160150193318,53.55486250283557
6.555587072,1.0002788559930071,53.376219086488604
6.557873664,1.0003241875041304,53.196778233986954
6.560160256,1.0003492704905235,53.016849488503034
6.562446336,1.0003524058679005,52.836741278294895
6.564732928,1.000333426676479,52.65673622651183
6.567019008,1.000293579004383,52.47718609231549
6.5693056,1.0002351713540867,52.298364672833515
6.57159168,1.0001621977025998,52.12049128111697
6.573878272,1.0000789713884186,51.94376136790718
6.576164864,0.9999908533127884,51.768305419866344
6.578450944,0.9999033794859352,51.59410577222876
6.580737536,0.9998221001514546,51.421153494167235
6.583023616,0.9997520139900866,51.249308509391476
6.585310208,0.9996976884664669,51.07839080991493
6.587596288,0.9996624663730771,50.908133804821
6.58988288,0.99964854715575,50.73821690467196
6.59216896,0.9996569913962967,50.56838354892938
6.594455552,0.999687121085187,50.39826629924838
6.596742144,0.9997370848576281,50.22758878454286
6.599028224,0.9998036935567916,50.05607327836046
6.601314816,0.9998827781485956,49.88353719137748
6.603600896,0.9999694121499079,49.709769839756845
6.605887488,1.0000580845775595,49.53477322746649
6.608173568,1.0001432086552895,49.358519161808644
6.61046016,1.0002194491541168,49.18110029795154
6.612746752,1.0002819392560183,49.00269294276844
6.615032832,1.0003268006106252,48.82351662067271
6.617319424,1.0003511411937351,48.643844593290545
6.619605504,1.0003535100982663,48.464010408000505
6.621892096,1.000333645483764,48.28430123621959
6.624178176,1.000292941160909,48.1050374111743
6.626464768,1.000233739660689,47.926501112596526
6.628750848,1.0001599609561802,47.74896942490694
6.63103744,1.0000761378598675,47.57255874243613
6.633324032,0.9999875679764091,47.39743043869117
6.635610112,0.9998998120240227,47.223565418983796
6.637896704,0.9998185291405266,47.05096284015836
6.640182784,0.9997486527765145,46.87946041496841
6.642469376,0.9996947128736863,46.708866119244675
6.644755456,0.9996600692633716,46.53892516220728
6.647042048,0.9996469830172477,46.369350310092614
6.649328128,0.9996562840744044,46.19981171432255
6.65161472,0.999687274798552,46.02999624921226
6.653901312,0.9997380592188262,45.85959147112674
6.656187392,0.9998055980497973,45.68834497683519
6.658473984,0.9998854793865151,45.51604178197131
6.660760064,0.9999725867135163,45.34253184497768
6.663046656,1.0000615887658169,45.167748602632486
6.665332736,1.0001468329172172,44.99173281355533
6.667619328,1.0002229532231484,44.81454294072027
6.66990592,1.00028514628511,44.636378564127504
6.672192,1.0003294899036101,44.45745545883987
6.674478592,1.0003531862030044,44.27802588523515
6.676764672,1.0003547462189466,44.09843534067219
6.679051264,1.000333963770148,43.91899584573678
6.681337344,1.0002922971477661,43.74000457099906
6.683623936,1.000232309781195,43.56178083227183
6.685910016,1.000157729101393,43.38453682907326
6.688196608,1.0000732657439235,43.20845561564961
6.6904832,0.999984270761961,43.033645352547445
6.69276928,0.9998963074419717,42.86011708897842
6.695055872,0.9998148944366371,42.68782770332416
6.697341952,0.9997452860551848,42.516655015403934
6.699628544,0.9996918350622505,42.34637638109363
6.701914624,0.9996578238879196,42.17674712740205
6.704201216,0.9996454833536056,42.00748515782005
6.706487808,0.9996555881106969,41.83821796066913
6.708773888,0.9996874772968528,41.66869192931598
6.71106048,0.9997392471028408,41.49852268309296
6.71334656,0.9998075699971788,41.327536969877656
6.715633152,0.9998880747510437,41.1554728946802
6.717919232,0.9999757437943095,40.98219115399217
6.720205824,1.0000651252746962,40.80764875358173
6.722491904,1.0001505008555431,40.63184850562614
6.724778496,1.00022649850272,40.45487545342821
6.727065088,1.0002883393339435,40.27691531305075
6.729351168,1.000332126118201,40.098212880251644
6.73163776,1.0003551144031264,39.91902339243784
6.73392384,1.0003558369157155,39.73969186042191
6.736210432,1.000334204268228,39.56050220732941
6.738496512,1.0002915997979813,39.38178092542243
6.740783104,1.0002307358229106,39.20382977369985
6.743069696,1.0001552920680148,39.026873841233446
6.745355776,1.000070255759023,38.851095958154694
6.747642368,0.9999808353117661,38.67659197615272
6.749928448,0.9998925862529537,38.50338370712892
6.75221504,0.9998112368553265,38.33141053429704
6.75450112,0.9997417962463536,38.16054020765824
6.756787712,0.9996887625045737,37.990598685509035
6.759073792,0.9996554086695713,37.82125485466234
6.761360384,0.9996438220796502,37.65226546817616
6.763646976,0.9996548827884063,37.483288989040055
6.765933056,0.9996876865010711,37.314014019607356
6.768219648,0.9997403692328136,37.14413027002145
6.770505728,0.9998095001346424,36.9733496963231
6.77279232,0.9998906465182394,36.80150014895579
6.7750784,0.9999789340050731,36.628443974550066
6.777364992,1.0000686393868845,36.454115645146416
6.779651584,1.000154116602397,36.27850234634795
6.781937664,1.0002300562864068,36.10174659022673
6.784224256,1.000291522419587,35.923995538575895
6.786510336,1.000334849526105,35.745490416168266
6.788796928,1.0003570128596828,35.56652518308905
6.791083008,1.0003568688360294,35.38741281802037
6.7933696,1.0003344102432177,35.20846263651331
6.79565568,1.0002909089732768,35.030004895506984
6.797942272,1.000229088844215,34.85233499871672
6.800228864,1.000152887286285,34.67565827113512
6.802514944,1.0000672163483175,34.50015945176411
6.804801536,0.9999772657895503,34.32595661929427
6.807087616,0.9998888108301305,34.15304060903835
6.809374208,0.9998074943393495,33.981370363643585
6.811660288,0.9997383540083062,33.81081310470259
6.81394688,0.9996857635532266,33.641155093908225
6.81623296,0.9996529908643977,33.47209807186094
6.818519552,0.9996422207079352,33.303389069733335
6.820806144,0.9996541381682406,33.134671471471805
6.823092224,0.9996879254607481,32.965619276653804
6.825378816,0.9997415448813979,32.79596171092234
6.827664896,0.9998113895048437,32.625445838204826
6.829951488,0.9998934358248247,32.45379306301577
6.832237568,0.9999822355335496,32.28094556830807
6.83452416,1.0000722515362215,32.106780989346596
6.836810752,1.0001579072479445,31.93136058894525
6.839096832,1.0002336483543544,31.75479662344788
6.841383424,1.0002948539138354,31.57722771121133
6.843669504,1.000337454246964,31.398928688727313
6.845956096,1.0003590158026632,31.22016032340833
6.848242176,1.0003580205330616,31.041267495333212
6.850528768,1.0003345006467597,30.86255018725087
6.852814848,1.0002900455653594,30.684324692592273
6.85510144,1.0002273714049064,30.50690382334202
6.857388032,1.000150393343181,30.330496716504513
6.859674112,1.000064033596256,30.15527648861576
6.861960704,0.9999737197465702,29.98135071841074
6.864246784,0.9998850033817372,29.80873557952787
6.866533376,0.9998036956477058,29.637360097059098
6.868819456,0.9997347510555723,29.46707569551
6.871106048,0.9996826605711849,29.297686484988688
6.87339264,0.9996506205317177,29.128911222724245
6.87567872,0.9996406911585776,28.96045986462678
6.877965312,0.999653501253547,28.79198742404551
6.880251392,0.9996882199399529,28.623195325784963
6.882537984,0.9997427586842114,28.453738091447647
6.884824064,0.9998135992203345,28.28340449886302
6.887110656,0.999896300865718,28.111964202607425
6.889396736,0.9999856376543182,27.939290488748004
6.891683328,1.0000760292941635,27.76529936549756
6.89396992,1.000161776876816,27.59005734072992
6.896256,1.0002373727822136,27.41364190841818
6.898542592,1.000298135242639,27.236264907983212
6.900828672,1.0003402441205127,27.058138787762356
6.903115264,1.0003610277547847,26.879562797566432
6.905401344,1.0003590966261735,26.700881284187403
6.907687936,1.0003347052093237,26.522367384122376
6.909974528,1.000289227782685,26.344377150855543
6.912260608,1.0002256099866405,26.167181354157556
6.9145472,1.0001478735924527,25.991038405481195
6.91683328,1.0000608432587554,25.816068362023948
6.919119872,0.9999700705925557,25.64242149271368
6.921405952,0.9998811937261455,25.470059716288596
6.923692544,0.9997998923237905,25.298968804543595
6.925978624,0.999731242488028,25.128943489159195
6.928265216,0.9996796142694935,24.95984335605158
6.930551808,0.9996482330201675,24.79131174943252
6.932837888,0.9996391364828257,24.623098677897165
6.93512448,0.9996528951111193,24.45487125753547
