freq,mag,phase
6.0,0.9999930906432126,47.466580679167635
6.008,0.9999931285490401,47.28348023564439
6.016,0.9999931670565088,47.10036034547855
6.024,0.9999932061468534,46.917221022623316
6.032,0.9999932458014668,46.734062281144254
6.04,0.9999932860018996,46.55088413521929
6.048,0.9999933267298607,46.36768659913883
6.056,0.9999933679672179,46.18446968730572
6.064,0.9999934096959977,46.00123341423526
6.072,0.9999934518983863,45.81797779455528
6.08,0.9999934945567286,45.63470284300611
6.088,0.9999935376535296,45.45140857444063
6.096,0.9999935811714544,45.268095003824214
6.104,0.9999936250933276,45.084762146234866
6.112,0.9999936694021345,44.90141001686314
6.12,0.9999937140810209,44.71803863101216
6.128,0.9999937591132932,44.53464800409767
6.136,0.9999938044824183,44.351238151648005
6.144,0.9999938501720246,44.16780908930411
6.152,0.9999938961659013,43.98436083281952
6.16,0.9999939424479987,43.80089339806044
6.168,0.9999939890024288,43.61740680100565
6.176,0.9999940358134644,43.43390105774652
6.184,0.9999940828655408,43.2503761844871
6.192,0.9999941301432541,43.066832197544
6.2,0.9999941776313628,42.88326911334645
6.208,0.9999942253147867,42.69968694843625
6.216,0.9999942731786069,42.51608571946783
6.224,0.9999943212080675,42.33246544320815
6.232,0.9999943693885738,42.14882613653677
6.24,0.9999944177056932,41.965167816445756
6.248,0.9999944661451546,41.781490500039745
6.256,0.9999945146928494,41.59779420453587
6.264,0.9999945633348301,41.41407894726374
6.272,0.9999946120573118,41.23034474566552
6.28,0.999994660846671,41.046591617295704
6.288,0.9999947096894463,40.86281957982131
6.296,0.9999947585723372,40.67902865102172
6.304,0.999994807482206,40.495218848788696
6.312,0.9999948564060753,40.311390191126364
6.32,0.9999949053311303,40.12754269615112
6.328,0.9999949542447168,39.9436763820917
6.336,0.9999950031343421,39.75979126728903
6.344,0.9999950519876745,39.575887370196305
6.352,0.9999951007925434,39.39196470937887
6.36,0.9999951495369389,39.20802330351418
6.368,0.9999951982090123,39.024063171391816
6.376,0.9999952467970745,38.84008433191342
6.384,0.9999952952895979,38.65608680409262
6.392,0.9999953436752137,38.472070607055
6.4,0.9999953919427145,38.288035760038106
6.408,0.9999954400810515,38.103982282391314
6.416,0.9999954880793365,37.9199101935758
6.424,0.9999955359268393,37.73581951316453
6.432,0.9999955836129905,37.551710260842206
6.44,0.999995631127378,37.36758245640512
6.448,0.9999956784597492,37.18343611976119
6.456,0.9999957256000098,36.999271270929896
6.464,0.9999957725382228,36.81508793004217
6.472,0.9999958192646102,36.63088611734034
6.48,0.9999958657695506,36.446665853178125
6.4879999999999995,0.9999959120435802,36.262427158020515
6.496,0.9999959580773917,36.07817005244367
6.504,0.999996003861835,35.89389455713499
6.5120000000000005,0.9999960493879156,35.709600692892856
6.52,0.9999960946467952,35.52528848062674
6.5280000000000005,0.9999961396297913,35.340957941356955
6.536,0.9999961843283763,35.15660909621479
6.5440000000000005,0.999996228734177,34.97224196644214
6.552,0.9999962728389761,34.787856573391814
6.5600000000000005,0.9999963166347087,34.603452938527006
6.568,0.9999963601134646,34.419031083421686
6.5760000000000005,0.9999964032674866,34.23459102976005
6.584,0.9999964460891704,34.050132799336865
6.592,0.9999964885710643,33.86565641405699
6.6,0.999996530705868,33.68116189593561
6.608,0.999996572486434,33.496649267097965
6.616,0.999996613905765,33.312118549779285
6.624,0.9999966549570144,33.127569766324726
6.632,0.9999966956334865,32.9430029391893
6.64,0.9999967359286351,32.758418090937695
6.648,0.9999967758360628,32.57381524424423
6.656,0.9999968153495215,32.38919442189273
6.664,0.9999968544629113,32.204555646776505
6.672,0.9999968931702803,32.019898941898084
6.68,0.9999969314658238,31.83522433036932
6.688,0.9999969693438833,31.650531835411066
6.696,0.9999970067989475,31.465821480353238
6.704,0.9999970438256506,31.281093288634608
6.712,0.9999970804187716,31.096347283802736
6.72,0.9999971165732341,30.911583489513806
6.728,0.9999971522841061,30.726801929532588
6.736,0.9999971875465989,30.542002627732284
6.744,0.9999972223560675,30.357185608094355
6.752,0.9999972567080079,30.172350894708497
6.76,0.9999972905980592,29.98749851177246
6.768,0.9999973240220003,29.80262848359192
6.776,0.999997356975752,29.61774083458039
6.784,0.9999973894553742,29.432835589259085
6.792,0.9999974214570665,29.247912772256768
6.8,0.9999974529771675,29.06297240830962
6.808,0.9999974840121526,28.878014522261157
6.816,0.9999975145586364,28.69303913906205
6.824,0.9999975446133693,28.508046283769986
6.832,0.9999975741732379,28.323035981549584
6.84,0.9999976032352644,28.138008257672205
6.848,0.9999976317966061,27.95296313751581
6.856,0.9999976598545538,27.76790064656487
6.864,0.9999976874065323,27.582820810410194
6.872,0.9999977144500992,27.39772365474876
6.88,0.9999977409829439,27.21260920538358
6.888,0.9999977670028872,27.02747748822361
6.896,0.9999977925078808,26.842328529283513
6.904,0.9999978174960066,26.657162354683575
6.912,0.9999978419654745,26.471978990649507
6.92,0.9999978659146248,26.286778463512302
6.928,0.9999978893419241,26.10156079970812
6.936,0.9999979122459667,25.916326025778098
6.944,0.9999979346254734,25.731074168368135
6.952,0.9999979564792898,25.54580525422886
6.96,0.9999979778063871,25.36051931021535
6.968,0.9999979986058598,25.17521636328702
6.976,0.9999980188769267,24.989896440507476
6.984,0.9999980386189281,24.80455956904429
6.992,0.9999980578313264,24.619205776168887
7.0,0.9999980765137054,24.43383508925634
7.008,0.9999980946657682,24.24844753578523
7.016,0.9999981122873379,24.063043143337424
7.024,0.9999981293783556,23.877621939597947
7.032,0.9999981459388811,23.69218395235479
7.04,0.99999816196909,23.506729209498715
7.048,0.9999981774692746,23.32125773902311
7.056,0.9999981924398428,23.135769569023772
7.064,0.9999982068813165,22.95026472769875
7.072,0.999998220794331,22.76474324334815
7.08,0.9999982341796352,22.579205144373933
7.088,0.9999982470380894,22.393650459279765
7.096,0.999998259370665,22.208079216670804
7.104,0.9999982711784442,22.022491445253497
7.112,0.9999982824626179,21.83688717383542
7.12,0.999998293224486,21.651266431325066
7.128,0.9999983034654556,21.465629246731638
7.136,0.9999983131870417,21.279975649164886
7.144,0.9999983223908637,21.094305667834856
7.152,0.9999983310786473,20.90861933205177
7.16,0.999998339252222,20.722916671225722
7.168,0.9999983469135202,20.537197714866576
7.176,0.9999983540645775,20.35146249258368
7.184,0.9999983607075302,20.165711034085728
7.192,0.9999983668446155,19.979943369180475
7.2,0.9999983724781702,19.794159527774625
7.208,0.9999983776106305,19.60835953987352
7.216,0.9999983822445299,19.42254343558099
7.224,0.9999983863824984,19.236711245099162
7.232,0.9999983900272632,19.05086299872813
7.24,0.999998393181646,18.864998726865892
7.248,0.9999983958485625,18.679118460008002
7.256,0.9999983980310221,18.493222228747417
7.264,0.9999983997321261,18.307310063774278
7.272,0.9999984009550675,18.121381995875677
7.28,0.9999984017031303,17.93543805593536
7.288,0.9999984019796866,17.749478274933644
7.296,0.9999984017881984,17.56350268394707
7.304,0.9999984011322144,17.377511314148265
7.312,0.9999984000153709,17.191504196805585
7.32,0.999998398441389,17.00548136328303
7.328,0.9999983964140754,16.8194428450399
7.336,0.9999983939373198,16.633388673630638
7.344,0.9999983910150952,16.44731888070453
7.352,0.9999983876514564,16.261233498005506
7.36,0.9999983838505391,16.075132557371894
7.368,0.9999983796165588,15.889016090736158
7.376,0.9999983749538104,15.7028841301247
7.384,0.9999983698666659,15.516736707657568
7.392,0.9999983643595755,15.330573855548229
7.4,0.9999983584370641,15.144395606103354
7.4079999999999995,0.9999983521037327,14.958201991722524
7.416,0.999998345364256,14.771993044897947
7.4239999999999995,0.9999983382233816,14.585768798214387
7.432,0.999998330685929,14.399529284348626
7.4399999999999995,0.9999983227567897,14.213274536069507
7.448,0.9999983144409241,14.027004586237409
7.4559999999999995,0.9999983057433627,13.84071946780425
7.464,0.9999982966692035,13.654419213812966
7.4719999999999995,0.9999982872236116,13.468103857397528
7.48,0.9999982774118187,13.281773431782373
7.4879999999999995,0.999998267239121,13.095427970282477
7.496,0.9999982567108795,12.909067506302735
7.504,0.9999982458325172,12.722692073338083
7.5120000000000005,0.9999982346095203,12.53630170497282
7.52,0.9999982230474359,12.349896434880748
7.5280000000000005,0.9999982111518705,12.163476296824507
7.536,0.9999981989284904,11.977041324655687
7.5440000000000005,0.9999981863830194,11.790591552314202
7.552,0.9999981735212385,11.604127013828325
7.5600000000000005,0.9999981603489849,11.417647743314134
7.568,0.9999981468721514,11.231153774975512
7.5760000000000005,0.999998133096683,11.04464514310359
7.584,0.9999981190285798,10.858121882076738
7.5920000000000005,0.9999981046738924,10.671584026360021
7.6,0.9999980900387232,10.485031610505187
7.6080000000000005,0.9999980751292239,10.298464669150095
7.616,0.9999980599515955,10.111883237018745
7.6240000000000006,0.999998044512087,9.925287348920659
7.632,0.999998028816994,9.738677039750927
7.640000000000001,0.9999980128726583,9.552052344489582
7.648,0.9999979966854663,9.365413298201657
7.656000000000001,0.9999979802618484,9.17875993603655
7.664,0.9999979636082779,8.992092293228053
7.672,0.9999979467312692,8.805410405093776
7.68,0.9999979296373785,8.618714307035036
7.688,0.9999979123332013,8.43200403453651
7.696,0.9999978948253716,8.245279623165914
7.704,0.9999978771205615,8.058541108573717
7.712,0.9999978592254797,7.871788526492857
7.72,0.999997841146871,7.685021912738396
7.728,0.9999978228915134,7.4982413032072825
7.736,0.9999978044662208,7.311446733877975
7.744,0.999997785877838,7.124638240810184
7.752,0.9999977671332426,6.937815860144547
7.76,0.9999977482393413,6.750979628102338
7.768,0.9999977292030723,6.564129580985119
7.776,0.999997710031401,6.377265755174464
7.784,0.9999976907313207,6.190388187131642
7.792,0.9999976713098518,6.003496913397282
7.8,0.9999976517740401,5.81659197059108
7.808,0.9999976321309553,5.629673395411478
7.816,0.9999976123876912,5.442741224635335
7.824,0.9999975925513642,5.255795495117622
7.832,0.9999975726291124,5.068836243791095
7.84,0.9999975526280932,4.881863507665984
7.848,0.9999975325554854,4.694877323829641
7.856,0.9999975124184852,4.507877729446259
7.864,0.9999974922243066,4.32086476175651
7.872,0.9999974719801796,4.133838458077243
7.88,0.999997451693351,3.9467988558011395
7.888,0.9999974313710809,3.7597459923964003
7.896,0.999997411020644,3.572679905406402
7.904,0.9999973906493264,3.3856006324493753
7.912,0.9999973702644266,3.1985082112180674
7.92,0.9999973498732541,3.0114026794794087
7.928,0.9999973294831268,2.824284075074185
7.936,0.9999973091013723,2.6371524359166925
7.944,0.9999972887353252,2.450007799994405
7.952,0.9999972683923269,2.2628502053676365
7.96,0.999997248079725,2.0756796901692005
7.968,0.9999972278048713,1.8884962926040687
7.976,0.9999972075751216,1.70130005094903
7.984,0.9999971873978338,1.5140910035523503
7.992,0.9999971672803691,1.3268691888334234
8.0,0.9999971472300881,1.139634645282429
8.008,0.9999971272543521,0.952387411460008
8.016,0.9999971073605214,0.7651275259968077
8.024000000000001,0.9999970875559535,0.5778550275933241
8.032,0.9999970678480039,0.39056995501944425
8.04,0.9999970482440234,0.20327234711401745
8.048,0.9999970287513584,0.0159622427845805
8.056000000000001,0.9999970093773497,-0.17136031899290624
8.064,0.9999969901293307,-0.35869529917450205
8.072,0.9999969710146279,-0.54604265864872
8.08,0.9999969520405584,-0.7334023582368008
8.088000000000001,0.9999969332144304,-0.9207743586929878
8.096,0.999996914543541,-1.1081586207049707
8.104,0.9999968960351769,-1.2955551048943248
8.112,0.9999968776966115,-1.4829637718167894
8.120000000000001,0.9999968595351053,-1.6703845819625478
8.128,0.999996841557905,-1.8578174957566722
8.136,0.9999968237722417,-2.04526247355957
8.144,0.9999968061853312,-2.232719475667268
8.152000000000001,0.9999967888043714,-2.4201884623116925
8.16,0.9999967716365438,-2.607669393661123
8.168,0.9999967546890097,-2.7951622298206376
8.176,0.999996737968913,-2.9826669308324028
8.184000000000001,0.9999967214833746,-3.1701834566759626
8.192,0.9999967052394962,-3.357711767268687
8.2,0.9999966892443563,-3.545251822466232
8.208,0.99999667350501,-3.7328035820628296
8.216000000000001,0.9999966580284897,-3.920367005791571
8.224,0.999996642821802,-4.1079420533248765
8.232,0.9999966278919279,-4.295528684274948
8.24,0.9999966132458221,-4.483126858194063
8.248000000000001,0.9999965988904123,-4.670736534574866
8.256,0.9999965848325969,-4.858357672850849
8.264,0.9999965710792469,-5.045990232396778
8.272,0.9999965576372015,-5.233634172529042
8.280000000000001,0.9999965445132705,-5.4212894525058966
8.288,0.9999965317142313,-5.608956031527974
8.296,0.9999965192468294,-5.796633868738727
8.304,0.9999965071177769,-5.9843229232247355
8.312,0.9999964953337518,-6.172023154015965
8.32,0.999996483901398,-6.359734520086452
8.328,0.999996472827322,-6.547456980354356
8.336,0.9999964621180955,-6.735190493682673
8.344,0.999996451780252,-6.922935018879304
8.352,0.9999964418202874,-7.1106905146977555
8.36,0.9999964322446586,-7.298456939837234
8.368,0.9999964230597824,-7.486234252943348
8.376,0.9999964142720364,-7.674022412608151
8.384,0.9999964058877561,-7.861821377370911
8.392,0.9999963979132342,-8.049631105718147
8.4,0.9999963903547231,-8.237451556084334
8.408,0.9999963832184294,-8.425282686852022
8.416,0.9999963765105166,-8.613124456352523
8.424,0.9999963702371033,-8.800976822865978
8.432,0.9999963644042618,-8.988839744622117
8.44,0.9999963590180182,-9.176713179800304
8.448,0.9999963540843518,-9.364597086530274
8.456,0.9999963496091936,-9.552491422892192
8.464,0.999996345598426,-9.740396146917412
8.472,0.9999963420578822,-9.92831121658852
8.48,0.9999963389933452,-10.116236589840101
8.488,0.9999963364105477,-10.304172224558771
8.496,0.9999963343151703,-10.49211807858395
8.504,0.9999963327128419,-10.680074109707927
8.512,0.9999963316091386,-10.868040275676583
8.52,0.9999963310095829,-11.05601653418949
8.528,0.999996330919643,-11.244002842900626
8.536,0.999996331344733,-11.431999159418476
8.544,0.9999963322902102,-11.620005441306766
8.552,0.9999963337613769,-11.808021646084526
8.56,0.9999963357634782,-11.99604773122686
8.568,0.9999963383017021,-12.184083654164997
8.576,0.999996341381178,-12.372129372287068
8.584,0.9999963450069765,-12.560184842938167
8.592,0.9999963491841101,-12.748250023421082
8.6,0.9999963539175298,-12.936324870996422
8.608,0.9999963592121272,-13.124409342883329
8.616,0.9999963650727322,-13.312503396259567
8.624,0.9999963715041127,-13.500606988262286
8.632,0.9999963785109751,-13.688720075988087
8.64,0.9999963860979626,-13.87684261649379
8.648,0.9999963942696544,-14.064974566796511
8.656,0.9999964030305661,-14.253115883874424
8.664,0.9999964123851486,-14.441266524666833
8.672,0.9999964223377872,-14.629426446074941
8.68,0.9999964328928024,-14.817595604961914
8.688,0.9999964440544477,-15.005773958153682
8.696,0.9999964558269098,-15.193961462438969
8.704,0.9999964682143077,-15.382158074570112
8.712,0.9999964812206935,-15.570363751263098
8.72,0.9999964948500504,-15.758578449198353
8.728,0.9999965091062926,-15.946802125020831
8.736,0.9999965239932648,-16.135034735340742
8.744,0.9999965395147421,-16.3232762367337
8.752,0.999996555674429,-16.511526585741443
8.76,0.999996572475959,-16.69978573887192
8.768,0.9999965899228946,-16.888053652600092
8.776,0.9999966080187264,-17.076330283367998
8.784,0.9999966267668723,-17.264615587585524
8.792,0.9999966461706778,-17.45290952163048
8.8,0.9999966662334151,-17.64121204184942
8.808,0.9999966869582833,-17.829523104557673
8.815999999999999,0.9999967083484061,-18.017842666040107
8.824,0.9999967304068342,-18.206170682551413
8.832,0.9999967531365422,-18.394507110316468
8.84,0.9999967765404307,-18.58285190553085
8.847999999999999,0.9999968006213232,-18.771205024361354
8.856,0.9999968253819679,-18.95956642294633
8.864,0.9999968508250356,-19.147936057396056
8.872,0.999996876953122,-19.33631388379322
8.879999999999999,0.9999969037687435,-19.52469985819349
8.888,0.9999969312743398,-19.713093936625818
8.896,0.9999969594722729,-19.901496075092815
8.904,0.9999969883648259,-20.089906229571262
8.911999999999999,0.9999970179542031,-20.27832435601266
8.92,0.9999970482425304,-20.466750410343536
8.928,0.9999970792318538,-20.65518434846582
8.936,0.9999971109241399,-20.843626126257366
8.943999999999999,0.9999971433212748,-21.03207569957249
8.952,0.9999971764250648,-21.220533024242297
8.96,0.9999972102372358,-21.408998056075053
8.968,0.999997244759432,-21.597470750856694
8.975999999999999,0.9999972799932166,-21.785951064351377
8.984,0.9999973159400722,-21.974438952301806
8.992,0.9999973526013987,-22.1629343704296
9.0,0.9999973899785143,-22.351437274435824
9.008,0.9999974280726548,-22.53994762000151
9.016,0.9999974668849738,-22.728465362788018
9.024000000000001,0.9999975064165422,-22.91699045843738
9.032,0.9999975466683474,-23.10552286257283
9.04,0.9999975876412939,-23.29406253079937
9.048,0.9999976293362028,-23.482609418704055
9.056000000000001,0.9999976717538123,-23.671163481856397
9.064,0.9999977148947748,-23.859724675808916
9.072,0.9999977587596611,-24.048292956097622
9.08,0.999997803348956,-24.236868278242383
9.088000000000001,0.9999978486630607,-24.425450597747314
9.096,0.9999978947022921,-24.614039870101255
9.104,0.9999979414668816,-24.802636050778357
9.112,0.999997988956976,-24.99123909523842
9.120000000000001,0.9999980371726377,-25.17984895892721
9.128,0.9999980861138432,-25.368465597277098
9.136,0.9999981357804845,-25.55708896570743
9.144,0.999998186172367,-25.74571901962505
9.152000000000001,0.9999982372892118,-25.934355714424566
9.16,0.9999982891306538,-26.122999005488904
9.168,0.9999983416962427,-26.311648848189833
9.176,0.9999983949854414,-26.50030519788834
9.184000000000001,0.9999984489976278,-26.688968009935003
9.192,0.9999985037320936,-26.87763723967047
9.2,0.9999985591880444,-27.06631284242604
9.208,0.9999986153645997,-27.254994773524043
9.216000000000001,0.9999986722607928,-27.443682988278116
9.224,0.9999987298755713,-27.632377441993814
9.232,0.999998788207796,-27.82107808996913
9.24,0.9999988472562414,-28.009784887494842
9.248000000000001,0.9999989070195964,-28.198497789854862
9.256,0.9999989674964634,-28.387216752326797
9.264,0.9999990286853578,-28.575941730182493
9.272,0.9999990905847101,-28.76467267868832
9.280000000000001,0.9999991531928634,-28.953409553105658
9.288,0.9999992165080748,-29.14215230869133
9.296,0.9999992805285156,-29.33090090069816
9.304,0.9999993452522703,-29.51965528437537
9.312000000000001,0.9999994106773381,-29.708415414968897
9.32,0.9999994768016318,-29.897181247721964
9.328,0.9999995436229777,-30.085952737875587
9.336,0.9999996111391166,-30.274729840668957
9.344,0.9999996793477037,-30.46351251133976
9.352,0.9999997482463079,-30.652300705124883
9.36,0.9999998178324125,-30.841094377260585
9.368,0.999999888103416,-31.029893482983272
9.376,0.99999995905663,-31.218697977529544
9.384,1.0,-31.407507816137038
9.392,0.9999999999999999,-31.596322954044574
9.4,1.0,-31.785143346492845
9.408,1.0,-31.9739689487246
9.416,1.0,-32.16279971598541
9.424,1.0,-32.35163560352375
9.432,1.0,-32.54047656659185
9.44,1.0,-32.72932256044574
9.448,1.0,-32.91817354034606
9.456,1.0,-33.107029461558206
9.464,1.0000000000000002,-33.295890279353074
9.472,1.0,-33.48475594900712
9.48,0.9999999999999999,-33.67362642580327
9.488,0.9999999999999998,-33.862501665030955
9.496,1.0,-34.05138162198686
9.504,0.9999999999999999,-34.24026625197512
9.512,1.0,-34.42915551030806
9.52,1.0,-34.618049352306315
9.528,1.0,-34.80694773329952
9.536,1.0,-34.99585060862667
9.544,1.0,-35.18475793363656
9.552,0.9999999999999999,-35.37366966368818
9.56,0.9999999999999999,-35.5625857541514
9.568,1.0,-35.75150616040698
9.576,1.0,-35.94043083784754
9.584,1.0,-36.1293597418775
9.592,1.0000000000000002,-36.31829282791401
9.6,1.0,-36.50723005138686
9.608,1.0,-36.69617136773952
