freq,mag,phase
6.0,0.9999917801437465,-170.84455345575387
6.002286592,0.9998975880032336,-170.9958832955915
6.004572672,0.9998098955511602,-171.14588467645927
6.006859264,0.9997340398389181,-171.29467814232322
6.009145344,0.9996749521659566,-171.44252164436674
6.011431936,0.9996364911475828,-171.58961419930083
6.013718016,0.9996209366265224,-171.7362910846084
6.016004608,0.9996294262739587,-171.88293426311128
6.018290688,0.9996614432500919,-172.02984219483184
6.02057728,0.9997149699598704,-172.17735995042494
6.022863872,0.9997865764633276,-172.32577056377343
6.025149952,0.9998718023103059,-172.4753593680611
6.027436544,0.9999651021480653,-172.62617331075617
6.029722624,1.0000608320308735,-172.7783935140119
6.032009216,1.0001528355918374,-172.93198597378606
6.034295296,1.000235162850595,-173.08676424015573
6.036581888,1.0003026522058058,-173.2426995669346
6.03886848,1.000351172853017,-173.39946199147457
6.04115456,1.0003772986183928,-173.55673061064385
6.043441152,1.0003796415825945,-173.71421725059548
6.045727232,1.0003578004394582,-173.871526076369
6.048013824,1.000313337188016,-174.02839127309647
6.050299904,1.000248951210213,-174.1844499270764
6.052586496,1.000168752223391,-174.33945116219368
6.054872576,1.0000776745148041,-174.49319247333054
6.057159168,0.999981594422745,-174.64556470210906
6.05944576,0.9998866136584675,-174.79656469602344
6.06173184,0.9997985848323881,-174.94619242645447
6.064018432,0.9997233411337457,-175.09461824199505
6.066304512,0.999665427371935,-175.2420949275712
6.068591104,0.9996287438316112,-175.3888540694293
6.070877184,0.9996155645278848,-175.53525293962502
6.073163776,0.9996267692361371,-175.68162065683137
6.075450368,0.9996615473435694,-175.82829904716726
6.077736448,0.999717853725299,-175.97561568589236
6.08002304,0.9997921873161588,-176.12391815325392
6.08230912,0.9998796741213394,-176.27334904697187
6.084595712,0.9999749288604054,-176.42411001202476
6.086881792,1.000071883099392,-176.5762397963143
6.089168384,1.000164356776353,-176.72978237787865
6.091454464,1.0002465246044048,-176.88454859647598
6.093741056,1.0003131431719177,-177.040397856826
6.096027648,1.0003599341717364,-177.19708086744137
6.098313728,1.000384011780206,-177.35426745517972
6.10060032,1.0003838214092762,-177.51159935683947
6.1028864,1.000359206320516,-177.66875288391202
6.105172992,1.0003118693001247,-177.82538340094817
6.107459072,1.0002446273198506,-177.98116433468738
6.109745664,1.0001619131866457,-178.13585697839613
6.112032256,1.0000687413983504,-178.2892757229904
6.114318336,0.9999711969574837,-178.44129126923588
6.116604928,0.9998752888993626,-178.5918944510406
6.118891008,0.9997871821658009,-178.74113197627756
6.1211776,0.9997124663442194,-178.8891918625345
6.12346368,0.999655927713755,-179.0362735713423
6.125750272,0.9996211087682702,-179.18269104841826
6.128036352,0.99961023972414,-179.32874882516953
6.130322944,0.999624103245015,-179.474828660183
6.132609536,0.9996618272077493,-179.62126900595158
6.134895616,0.9997210517467933,-179.7684001301006
6.137182208,0.9997981074512995,-179.91651781751338
6.139468288,0.9998878283389149,179.93417188270763
6.14175488,0.999985024810748,179.783512169904
6.14404096,1.0000830369286502,179.6314422662271
6.146327552,1.000175976107074,179.4780042395357
6.148614144,1.0002577556817935,179.3233008673033
6.150900224,1.000323382541246,179.1675142399439
6.153186816,1.0003686317508944,179.01093139794335
6.155472896,1.0003905132698894,178.8538994163342
6.157759488,1.0003876632985618,178.69670318207358
6.160045568,1.0003602746780602,178.53975526743378
6.16233216,1.0003099873384282,178.38339446239914
6.16461824,1.0002399762216652,178.22786802022688
6.166904832,1.0001547525007555,178.07350649258296
6.169191424,1.0000594733642585,177.92046724674304
6.171477504,0.9999604550082626,177.76883120065958
6.173764096,0.9998638478726066,177.61864612799386
6.176050176,0.9997756701129358,177.46981644302562
6.178336768,0.9997016710512455,177.3221642782814
6.180622848,0.9996463665642937,177.17546189862327
6.18290944,0.999613655811591,177.02942079120783
6.18519552,0.9996052867731767,176.88368659409448
6.187482112,0.9996219205535934,176.7379224819802
6.189768704,0.9996626677064768,176.59173371051023
6.192054784,0.9997246828606463,176.44483235129388
6.194341376,0.9998044372907139,176.29689326754115
6.196627456,0.9998965092570493,176.1477265105303
6.198914048,0.9999952868283255,175.99717791342968
6.201200128,1.0000944362006674,175.8452120608368
6.20348672,1.0001877861253816,175.69185453171073
6.205773312,1.0002693920835053,175.5372217926972
6.208059392,1.000333915013782,175.38153381995843
6.210345984,1.0003774150102152,175.22508587739196
6.212632064,1.0003969679558984,175.0681737183331
6.214918656,1.0003913635029356,174.911183695254
6.217204736,1.0003610095105369,174.7544532615182
6.219491328,1.0003077545853565,174.5983506289124
6.221777408,1.000234909632359,174.44315352342852
6.224064,1.0001470706959998,174.28913029408127
6.226350592,1.0000499392331588,174.1364759096605
6.228636672,0.9999494467046934,173.9852446809554
6.230923264,0.999852159770354,173.83550291105578
6.233209344,0.9997639326846953,173.6870943620962
6.235495936,0.9996906964402792,173.53987297204776
6.237782016,0.9996370539280196,173.39359509153797
6.240068608,0.9996063080751579,173.2479443019285
6.2423552,0.99960047773784,173.10255886163705
6.24464128,0.9996200226947425,172.9571350853866
6.246927872,0.9996637628911935,172.81121142401324
6.249213952,0.9997287852479585,172.66454572077748
6.251500544,0.9998110978701825,172.5167811429228
6.253786624,0.999905589685648,172.36778263017632
6.256073216,1.0000060041041259,172.2173487172559
6.258359296,1.0001062122190372,172.06548529022064
6.260645888,1.0001998550448699,171.9122391418641
6.26293248,1.0002809652179967,171.7577098298953
6.26521856,1.000344308420998,171.60214605790452
6.267505152,1.000385919633562,171.44581991492618
6.269791232,1.0004031151767836,171.28908849081176
6.272077824,1.0003947747297492,171.1322836364071
6.274363904,1.0003614335960018,170.97581259860232
6.276650496,1.0003052290864805,170.8200008937251
6.278937088,1.0002295426178756,170.6651411235243
6.281223168,1.0001392876075172,170.51150185956715
6.28350976,1.0000400418554334,170.35923632352245
6.28579584,0.9999381537862101,170.20845723674375
6.288082432,0.9998401571764625,170.05915504314146
6.290368512,0.9997521541364238,169.91119132018085
6.292655104,0.9996797566779034,169.76444147857683
6.294941184,0.9996275925126876,169.61858773608984
6.297227776,0.99959902683114,169.47332949092993
6.299514368,0.9995958556820106,169.3283452589382
6.301800448,0.9996183640662474,169.18322086441822
6.30408704,0.9996650714935764,169.03758369255266
6.30637312,0.9997330945562701,168.8911526365298
6.308659712,0.9998182216776019,168.74362235139017
6.310945792,0.9999148195105964,168.59477698345958
6.313232384,1.0000169919551731,168.44451677379482
6.315518464,1.0001183209897637,168.29275382526095
6.317805056,1.0002121020681576,168.1396124613684
6.320091648,1.0002926873235694,167.98520145023764
6.322377728,1.0003547339910903,167.829782685145
6.32466432,1.0003944078769016,167.67360604510785
6.3269504,1.0004092158894706,167.51706492103267
6.329236992,1.0003979843691502,167.36049108745604
6.331523072,1.0003616813958236,167.2042757612028
6.333809664,1.00030227909777,167.04878565883573
6.336096256,1.0002237894392998,166.8942461473065
6.338382336,1.0001309690791436,166.74103623665036
6.340668928,1.0000297700203817,166.58921927958912
6.342955008,0.999926571212418,166.43888953875904
6.3452416,0.9998280565779285,166.29002667383276
6.34752768,0.9997401459219738,166.14255070110212
6.349814272,0.9996688064426138,165.99623677765229
6.352100352,0.9996182982330449,165.85085578712614
6.354386944,0.9995919463794295,165.70601334297498
6.356673536,0.9995915129873436,165.5614065589265
6.358959616,0.9996171332215629,165.4166290424638
6.361246208,0.9996669794595101,165.2713286484959
6.363532288,0.9997378629112049,165.12514033068013
6.36581888,0.9998256944400623,164.97781158068187
6.36810496,0.9999246088537777,164.82913363642405
6.370391552,1.0000283259051355,164.6790412685981
6.372678144,1.0001306255300486,164.5274432064165
6.374964224,1.0002245590919292,164.37438486359616
6.377250816,1.0003044752524572,164.22010753076256
6.379536896,1.0003650470051861,164.06483704894418
6.381823488,1.0004027939180193,163.90885180524765
6.384109568,1.0004149229028543,163.75247751584104
6.38639616,1.0004007755226558,163.59619073018462
6.38868224,1.0003613595848697,163.44026067477407
6.390968832,1.0002989545187417,163.28507274236927
6.393255424,1.0002174722642188,163.13097399699018
6.395541504,1.0001221970798795,162.9781501180903
6.397828096,1.0000191111022563,162.8267817577299
6.400114176,0.9999146022141339,162.6769270622313
6.402400768,0.9998155267291712,162.52857258287526
6.404686848,0.9997280845665759,162.38159121115294
6.40697344,0.9996576607978782,162.23576329102602
6.409260032,0.9996090046800096,162.09082555178097
6.411546112,0.9995851541479139,161.94646292773461
6.413832704,0.9995874227864325,161.80223495609602
6.416118784,0.9996160743867465,161.65779925872138
6.418405376,0.9996690595748708,161.51277897994285
6.420691456,0.9997431292821533,161.3668726649689
6.422978048,0.9998336177994085,161.21979175032882
6.425264128,0.9999346790313454,161.07130390951005
6.42755072,1.0000401123117237,160.92133361144315
6.429837312,1.0001430762573373,160.76986806871946
6.432123392,1.000237066386588,160.61698023392884
6.434409984,1.0003163140172298,160.4628428783016
6.436696064,1.0003754753371867,160.30771411711663
6.438982656,1.0004107802747084,160.15191289716168
6.441268736,1.0004203786042485,159.99579328339257
6.443555328,1.0004032665578142,159.83974366998137
6.44584192,1.000360596941708,159.6841408976555
6.448128,1.000295122895755,159.52931094570496
6.450414592,1.000210745422528,159.37559136545772
6.452700672,1.0001130289598161,159.2232156397577
6.454987264,1.0000079586577333,159.07233232897565
6.457273344,0.9999023296024487,158.92296951326182
6.459559936,0.9998028267006981,158.77511858028373
6.461846016,0.9997156135602323,158.62865490967707
6.464132608,0.9996464686307216,158.48333066238646
6.4664192,0.999599720747454,158.3388763828027
6.46870528,0.999578231408001,158.19492030874125
6.470991872,0.9995835653350446,158.0511307426518
6.473277952,0.9996153982785667,157.9070522777889
6.475564544,0.9996716067891198,157.76238465269984
6.477850624,0.9997486432662469,157.6167362052631
6.480137216,0.9998418020396842,157.46986539473593
6.482423296,0.999945084836378,157.32160525010687
6.484709888,1.0000520373023862,157.17179025115985
6.48699648,1.0001558810204187,157.0204742142433
6.48928256,1.000249752877597,156.8677605620611
6.491569152,1.0003280628210072,156.71378388468133
6.493855232,1.0003856957939485,156.55880657970872
6.496141824,1.000419004437502,156.40322988353861
6.498427904,1.0004257348203167,156.2473460174044
6.500714496,1.0004055572987969,156.09155199921963
6.503001088,1.0003595715571432,155.9362775557292
6.505287168,1.0002908192239417,155.781836926657
6.50757376,1.0002036906776184,155.6285586278271
6.50985984,1.0001034531198019,155.47663163575663
6.512146432,0.9999965997468679,155.32621388982577
6.514432512,0.9998897723514112,155.1773723820791
6.516719104,0.9997899627836228,155.03006909349992
6.519005184,0.9997033176738416,154.88411702080413
6.521291776,0.9996354708135745,154.73929516635695
6.523578368,0.9995906558498343,154.5953445556565
6.525864448,0.9995717758138856,154.4518647561925
6.52815104,0.9995800316617258,154.30845541489413
6.53043712,0.9996151728621229,154.16476382322455
6.532723712,0.9996744897896723,154.0204218827339
6.535009792,0.9997545764999614,153.8750405653387
6.537296384,0.9998506354878289,153.72842198187712
6.539582976,0.9999560136180071,153.58035364663863
6.541869056,1.000064511590651,153.43073991977798
6.544155648,1.0001688792039163,153.27958057294506
6.546441728,1.0002628419804402,153.12701016322
6.54872832,1.000340041712552,152.97321111427786
6.5510144,1.0003959644650062,152.81844378397622
6.553300992,1.000426829215204,152.66304243907948
6.555587072,1.0004307570175943,152.5074108598013
6.557873664,1.0004074708917716,152.35195185135984
6.560160256,1.0003582354615808,152.1970166301587
6.562446336,1.000286246537311,152.0429601131461
6.564732928,1.0001960527771299,151.89012480452752
6.567019008,1.0000934327940008,151.73867513312211
6.5693056,0.999984720898808,151.58878186839095
6.57159168,0.9998770092858416,151.44048685409066
6.573878272,0.9997767933398841,151.29372031806145
6.576164864,0.9996908013768168,151.1482944732561
6.578450944,0.9996243555067664,151.00402642718407
6.580737536,0.9995816240554998,150.86054964101317
6.583023616,0.9995653885830942,150.71752953649482
6.585310208,0.9995766437583515,150.57457728185398
6.587596288,0.9996150455007495,150.43125296038846
6.58988288,0.9996778224029492,150.28722343003864
6.59216896,0.9997610212954661,150.14214084002234
6.594455552,0.9998595382168375,149.99576890703855
6.596742144,0.9999672077085369,149.84790282309928
6.599028224,1.000077037354281,149.6984733548076
6.601314816,1.0001820624276594,149.5474867375892
6.603600896,1.0002758210275677,149.39509082249236
6.605887488,1.000352073279011,149.2414655706037
6.608173568,1.0004060818254317,149.0868992026903
6.61046016,1.0004345562023658,148.93173253787373
6.612746752,1.0004354847663373,148.77637476668278
6.615032832,1.0004088229302455,148.62122522524635
6.617319424,1.0003563232608867,148.46666500781217
6.619605504,1.0002810762324092,148.31303003685517
6.621892096,1.0001880963126493,148.16060447436433
6.624178176,1.000082970732427,148.00967000808615
6.626464768,0.9999725327698236,147.86031666903082
6.628750848,0.9998637656861825,147.71255986077475
6.63103744,0.9997634225181603,147.56633798507227
6.633324032,0.999678131535797,147.4214788644293
6.635610112,0.999613081375525,147.2777557811896
6.637896704,0.9995726024779567,147.13478545010292
6.640182784,0.9995593221865618,146.99225542248487
6.642469376,0.9995738365020551,146.84973166760867
6.644755456,0.9996154458371604,146.70678200948848
6.647042048,0.9996816351519754,146.56309480544746
6.649328128,0.9997679432179661,146.41830145390313
6.65161472,0.9998692136607247,146.2721702229956
6.653901312,0.9999789743147603,146.1245335450132
6.656187392,1.000089969297635,145.97528332798882
6.658473984,1.0001956494976794,145.82448649185667
6.660760064,1.0002889493741258,145.6722604839505
6.663046656,1.000364067435876,145.51881017360913
6.665332736,1.0004163020089403,145.36446458171653
6.667619328,1.0004420553050377,145.20952528951776
6.66990592,1.0004400672732419,145.0544706170713
6.672192,1.0004100555174518,144.89963747540497
6.674478592,1.0003539948492315,144.7454524766164
6.676764672,1.0002756384474238,144.59223503719167
6.679051264,1.0001796076245442,144.4403325408373
6.681337344,1.0000720979162225,144.28990641289684
6.683623936,0.9999600014111426,144.14107622268523
6.685910016,0.9998502773482254,143.9938892261902
6.688196608,0.9997499986783555,143.84823689669972
6.6904832,0.9996654627878186,143.70395579933344
6.69276928,0.9996020860037372,143.56074975737715
6.695055872,0.9995639190858937,143.41832048760713
6.697341952,0.9995534279944063,143.27626348136818
6.699628544,0.9995712066767506,143.13414756070554
6.701914624,0.9996162875077753,142.99163803748766
6.704201216,0.9996858172034129,142.84828103183472
6.706487808,0.9997752490912303,142.70378855753202
6.708773888,0.9998793200735435,142.55790528985546
6.71106048,0.9999910115200004,142.41049604810738
6.71334656,1.0001035461634735,142.2614224779368
6.715633152,1.000209530534577,142.11081202163913
6.717919232,1.0003023359192733,141.9587576945793
6.720205824,1.0003761769162447,141.80549557314657
6.722491904,1.0004263727247185,141.65138391890116
6.724778496,1.0004495398616702,141.4966960741729
6.727065088,1.0004442628198098,141.3419355530608
6.729351168,1.0004108343335172,141.187438337275
6.73163776,1.00035136292437,141.03364093036237
6.73392384,1.000269598083576,140.8809032038978
6.736210432,1.0001706890053828,140.72945783389977
6.738496512,1.0000608442251357,140.5795662584011
6.740783104,0.9999470274620509,140.4312882021522
6.743069696,0.9998364608020958,140.2846959561833
6.745355776,0.9997362455814792,140.1396072034749
6.747642368,0.9996526217322456,139.99589423424155
6.749928448,0.999590946459387,139.85327721949074
6.75221504,0.9995552535493335,139.71137663860137
6.75450112,0.9995476389909695,139.56980250314382
6.756787712,0.9995688769117494,139.42813820539044
6.759073792,0.9996175300134439,139.28603072966402
6.761360384,0.9996905028826217,139.14296881915502
6.763646976,0.9997830844943334,138.99880730421916
6.765933056,0.9998898261078272,138.85317871142732
6.768219648,1.000003432052817,138.7059617332993
6.770505728,1.0001171617883626,138.5571305693271
6.77279232,1.0002234262620333,138.40668490159152
6.7750784,1.0003158403571457,138.25480925833645
6.777364992,1.000388303038163,138.10175075544495
6.779651584,1.0004362475671942,137.94786627960087
6.781937664,1.0004566307368028,137.79344479535706
6.784224256,1.000448052366351,137.63899587652253
6.786510336,1.0004112855667597,137.48485099842347
6.788796928,1.0003482712165923,137.3314721966169
6.791083008,1.0002631753889346,137.17918499970168
6.7933696,1.0001612291005573,137.02822849104578
6.79565568,1.0000490769143,136.87888594082918
6.797942272,0.9999337705598623,136.73119281199888
6.800228864,0.9998225575366202,136.58516680689024
6.802514944,0.9997223292135746,136.44069270403278
6.804801536,0.9996397201348531,136.2975919104908
6.807087616,0.9995798234514879,136.15552701408808
6.809374208,0.9995467781881615,136.0141546947653
6.811660288,0.9995424085170519,135.87307793576562
6.81394688,0.9995670821795849,135.73186316255934
6.81623296,0.9996192691104813,135.59011930162353
6.818519552,0.9996956529172465,135.44745055861338
6.820806144,0.9997914801854784,135.30356620546863
6.823092224,0.9999007023546874,135.1581828717748
6.825378816,1.0000165235227345,135.01119016769397
6.827664896,1.0001311985776933,134.8625340147408
6.829951488,1.0002378270271035,134.7122814879753
6.832237568,1.000329483089775,134.5606112347864
6.83452416,1.0004004202084582,134.40776335221915
6.836810752,1.0004459568174424,134.25410292079494
6.839096832,1.000463581115794,134.09997700649876
6.841383424,1.0004516956748917,133.94582856862343
6.843669504,1.000411238292614,133.79208339572418
6.845956096,1.000344567470993,133.63910480598497
6.848242176,1.0002561617097512,133.48726591377033
6.850528768,1.0001513986530999,133.336862336071
6.852814848,1.0000369328304253,133.1880748499386
6.85510144,0.9999200056671522,133.04097124877353
6.857388032,0.9998081101904879,132.89554452461084
6.859674112,0.9997082634130678,132.7516918752091
6.861960704,0.9996267802381057,132.6091483276334
6.864246784,0.9995690095273461,132.46765461902933
6.866533376,0.9995384799402549,132.3268115048243
6.868819456,0.9995373822398556,132.1862394070368
6.871106048,0.9995654687388046,132.04548237625585
6.87339264,0.9996213027114713,131.9041312691839
6.87567872,0.999701367546885,131.7618177081919
6.877965312,0.999800355807641,131.61821122522278
6.880251392,0.9999122433557888,131.47307258899383
6.882537984,1.0000297739151829,131.32631910386496
6.884824064,1.0001456248435245,131.1778635500833
6.887110656,1.000252399384806,131.02779547889438
6.889396736,1.0003432921134947,130.8763233428865
6.891683328,1.000412542257518,130.72369698986853
6.89396992,1.000455777745524,130.57025841510028
6.896256,1.0004702209849854,130.41640030572663
6.898542592,1.0004547705915054,130.26258961122565
6.900828672,1.0004107486074467,130.1092249522266
6.903115264,1.0003406287274592,129.95667815678573
6.905401344,1.000248615728622,129.80533459445434
6.907687936,1.000140892520003,129.65549405544695
6.909974528,1.0000243029390259,129.507236260668
6.912260608,0.9999059234208565,129.3607485064456
6.9145472,0.9997934267864415,129.21591532518553
6.91683328,0.9996939850764464,129.072680851858
6.919119872,0.9996138033099697,128.93074436460594
6.921405952,0.9995581269113488,128.78982889988123
