freq,mag,phase
6.0,0.9999942790509899,-172.69182950227807
6.008,0.999994806814002,-173.10322558330316
6.016,0.999995311118545,-173.51448001661444
6.024,0.9999957924268086,-173.92559651075518
6.032,0.9999962511961357,-174.33657878778274
6.04,0.9999966878790414,-174.74743058307504
6.048,0.9999971029232301,-175.15815564513898
6.056,0.9999974967716122,-175.56875773542055
6.064,0.9999978698623226,-175.9792406281172
6.072,0.9999982226287398,-176.38960810999168
6.08,0.9999985554995031,-176.79986398018818
6.088,0.9999988688985348,-177.21001205004967
6.096,0.9999991632450563,-177.6200561429377
6.104,0.9999994389536112,-178.0300000940536
6.112,0.999999696434084,-178.4398477502614
6.12,0.9999999360917226,-178.8496029699126
6.128,0.9999999999999999,-179.2592696226726
6.136,1.0,-179.66885158934878
6.144,0.9999999999999998,179.92164723827997
6.152,1.0,179.51222295763168
6.16,0.9999999999999999,179.10287165548854
6.168,1.0,178.69358940816264
6.176,1.0,178.28437228165976
6.184,1.0,177.87521633184215
6.192,1.0,177.46611760458958
6.2,0.9999999999999999,177.05707213595898
6.208,0.9999999999999999,176.6480759523428
6.216,1.0,176.23912507062613
6.224,1.0,175.83021549834186
6.232,0.9999999999999999,175.42134323382544
6.24,1.0,175.01250426636776
6.248,1.0,174.60369457636676
6.256,1.0,174.19491013547844
6.264,1.0,173.78614690676588
6.272,1.0,173.3774008448478
6.28,0.9999999999999999,172.96866789604567
6.288,0.9999999999999999,172.5599439985298
6.296,1.0000000000000002,172.15122508246452
6.304,1.0,171.7425070701521
6.312,0.9999999999999999,171.33378587617602
6.32,0.9999999999999999,170.92505740754316
6.328,1.0,170.516317563825
6.336,1.0,170.107562237298
6.344,0.9999999999999999,169.69878731308333
6.352,1.0,169.28998866928566
6.36,1.0,168.8811621771311
6.368,1.0,168.4723037011046
6.376,1.0,168.06340909908664
6.384,1.0,167.65447422248909
6.392,0.9999999999999999,167.24549491639084
6.4,0.999999915147627,166.83646701967226
6.408,0.9999997458327432,166.4273863651498
6.416,0.9999995706411391,166.01824877970972
6.424,0.9999993898194558,165.6090500844412
6.432,0.9999992036106584,165.19978609476934
6.44,0.9999990122540651,164.79045262058787
6.448,0.9999988159853677,164.38104546639104
6.456,0.9999986150366627,163.97156043140544
6.464,0.9999984096364768,163.5619933097219
6.472,0.9999982000097912,163.15233989042653
6.48,0.9999979863780695,162.7425959577319
6.4879999999999995,0.9999977689592833,162.33275729110835
6.496,0.9999975479679368,161.9228196654142
6.504,0.9999973236150963,161.51277885102743
6.5120000000000005,0.9999970961084109,161.10263061397555
6.52,0.9999968656521451,160.6923707160672
6.5280000000000005,0.999996632447199,160.28199491502215
6.536,0.9999963966911357,159.87149896460292
6.5440000000000005,0.9999961585782098,159.4608786147452
6.552,0.9999959182993886,159.0501296116895
6.5600000000000005,0.9999956760423815,158.639247698112
6.568,0.9999954319916633,158.22822861325682
6.5760000000000005,0.9999951863285007,157.81706809306715
6.584,0.9999949392309762,157.40576187031823
6.592,0.9999946908740166,156.9943056747493
6.6,0.9999944414294148,156.58269523319711
6.608,0.9999941910658569,156.1709262697289
6.616,0.9999939399489456,155.75899450577674
6.624,0.9999936882412274,155.34689566027166
6.632,0.9999934361022162,154.93462544977882
6.64,0.9999931836884179,154.52217958863326
6.648,0.9999929311533546,154.10955378907593
6.656,0.9999926786475911,153.696743761391
6.664,0.9999924263187577,153.28374521404328
6.672,0.9999921743115749,152.87055385381694
6.68,0.9999919227678775,152.4571653859548
6.688,0.99999167182664,152.04357551429854
6.696,0.9999914216239988,151.62977994142977
6.704,0.9999911722932777,151.2157743688121
6.712,0.9999909239650103,150.80155449693427
6.72,0.9999906767669652,150.3871160254542
6.728,0.9999904308241685,149.97245465334404
6.736,0.9999901862589278,149.55756607903672
6.744,0.9999899431908558,149.1424460005732
6.752,0.9999897017368926,148.7270901157512
6.76,0.9999894620113299,148.3114941222752
6.768,0.9999892241258336,147.89565371790752
6.776,0.9999889881894667,147.47956460062102
6.784,0.9999887543087119,147.06322246875285
6.792,0.999988522587495,146.64662302116002
6.8,0.999988293127206,146.22976195737613
6.808,0.9999880660267239,145.81263497776968
6.816,0.9999878413824365,145.39523778370406
6.824,0.9999876192882644,144.97756607769895
6.832,0.9999873998356817,144.55961556359352
6.84,0.9999871831137394,144.1413819467113
6.848,0.9999869692090861,143.72286093402664
6.856,0.9999867582059904,143.30404823433318
6.864,0.9999865501863626,142.8849395584139
6.872,0.9999863452297745,142.46553061921307
6.88,0.9999861434134839,142.04581713201034
6.888,0.9999859448124526,141.6257948145966
6.896,0.9999857494993701,141.20545938745164
6.904,0.9999855575446724,140.78480657392433
6.912,0.9999853690165653,140.36383210041436
6.92,0.9999851839810426,139.94253169655653
6.928,0.9999850025019094,139.52090109540686
6.936,0.9999848246408001,139.09893603363122
6.944,0.9999846504572011,138.67663225169602
6.952,0.9999844800084688,138.2539854940611
6.96,0.9999843133498528,137.83099150937548
6.968,0.9999841505345133,137.40764605067463
6.976,0.9999839916135417,136.98394487558105
6.984,0.9999838366359814,136.55988374650676
6.992,0.9999836856488475,136.13545843085853
7.0,0.9999835386971448,135.71066470124546
7.008,0.99998339582389,135.2854983356895
7.016,0.9999832570701286,134.85995511783838
7.024,0.9999831224749559,134.43403083718104
7.032,0.999982992075535,134.0077212892663
7.04,0.999982865907118,133.5810222759238
7.048,0.9999827440030621,133.15392960548795
7.056,0.999982626394852,132.72643909302488
7.064,0.9999825131121146,132.2985465605618
7.072,0.9999824041826417,131.87024783731997
7.08,0.9999822996324066,131.44153875995013
7.088,0.999982199485583,131.01241517277083
7.096,0.999982103764563,130.5828729280106
7.104,0.9999820124899766,130.1529078860521
7.112,0.9999819256807096,129.72251591568045
7.12,0.999981843353921,129.29169289433392
7.128,0.9999817655250618,128.8604347083584
7.136,0.9999816922078923,128.42873725326461
7.144,0.9999816234145031,127.99659643398908
7.152,0.9999815591553273,127.56400816515819
7.16,0.999981499439163,127.13096837135538
7.168,0.9999814442731908,126.69747298739222
7.176,0.9999813936629882,126.26351795858261
7.184,0.9999813476125506,125.8290992410203
7.192,0.9999813061243068,125.39421280186025
7.2,0.9999812691991357,124.95885461960336
7.208,0.9999812368363882,124.52302068438476
7.216,0.9999812090338976,124.08670699826553
7.224,0.9999811857880037,123.64990957552851
7.232,0.9999811670935638,123.21262444297724
7.24,0.9999811529439763,122.77484764023899
7.248,0.9999811433311893,122.33657522007117
7.256,0.9999811382457284,121.89780324867193
7.264,0.9999811376767027,121.45852780599408
7.272,0.99998114161183,121.01874498606311
7.28,0.9999811500374488,120.57845089729891
7.288,0.9999811629385373,120.1376416628414
7.296,0.9999811802987296,119.69631342088016
7.304,0.9999812021003319,119.2544623249878
7.312,0.9999812283243408,118.81208454445714
7.32,0.999981258950457,118.3691762646428
7.328,0.9999812939571051,117.9257336873064
7.336,0.9999813333214485,117.48175303096586
7.344,0.9999813770194063,117.0372305312486
7.352,0.9999814250256683,116.59216244124906
7.36,0.9999814773137149,116.14654503189018
7.368,0.9999815338558298,115.70037459228863
7.376,0.9999815946231195,115.25364743012453
7.384,0.999981659585527,114.80635987201511
7.392,0.9999817287118498,114.35850826389265
7.4,0.9999818019697574,113.91008897138606
7.4079999999999995,0.9999818793258034,113.46109838020729
7.416,0.9999819607454471,113.01153289654104
7.4239999999999995,0.9999820461930671,112.5613889474399
7.432,0.9999821356319765,112.11066298122181
7.4399999999999995,0.9999822290244412,111.65935146787383
7.448,0.9999823263316959,111.20745089945791
7.4559999999999995,0.9999824275139599,110.75495779052287
7.464,0.9999825325304538,110.30186867851863
7.4719999999999995,0.9999826413394152,109.8481801242164
7.48,0.9999827538981154,109.39388871213143
7.4879999999999995,0.9999828701628761,108.93899105095133
7.496,0.9999829900890854,108.48348377396715
7.504,0.9999831136312123,108.02736353951003
7.5120000000000005,0.999983240742828,107.5706270313907
7.52,0.9999833713766167,107.11327095934412
7.5280000000000005,0.9999835054843949,106.65529205947729
7.536,0.999983643017127,106.19668709472218
7.5440000000000005,0.9999837839249425,105.7374528552916
7.552,0.9999839281571511,105.27758615914037
7.5600000000000005,0.9999840756622608,104.81708385242914
7.568,0.9999842263879929,104.35594280999362
7.5760000000000005,0.9999843802812992,103.89415993581642
7.584,0.9999845372883785,103.43173216350426
7.5920000000000005,0.9999846973546928,102.9686564567676
7.6,0.999984860424984,102.50492980990568
7.6080000000000005,0.999985026443292,102.04054924829387
7.616,0.9999851953529685,101.5755118288765
7.6240000000000006,0.9999853670966959,101.10981464066163
7.632,0.9999855416165041,100.64345480522144
7.640000000000001,0.9999857188537848,100.17642947719457
7.648,0.9999858987493117,99.7087358447937
7.656000000000001,0.9999860812432552,99.24037113031504
7.664,0.9999862662751996,98.77133259065323
7.672,0.9999864537841605,98.30161751781787
7.68,0.9999866437086017,97.83122323945503
7.688,0.999986835986452,97.36014711937105
7.696,0.9999870305551218,96.88838655806023
7.704,0.999987227351522,96.41593899323559
7.712,0.9999874263120792,95.94280190036265
7.72,0.9999876273727534,95.46897279319666
7.728,0.9999878304690565,94.99444922432245
7.736,0.9999880355360677,94.51922878569755
7.744,0.9999882425084535,94.04330910919805
7.752,0.9999884513204816,93.56668786716713
7.76,0.9999886619060414,93.08936277296657
7.768,0.9999888741986604,92.61133158153054
7.776,0.9999890881315228,92.13259208992221
7.784,0.9999893036374834,91.6531421378925
7.792,0.9999895206490915,91.17297960844144
7.8,0.9999897390986027,90.69210242838142
7.808,0.999989958918001,90.21050856890287
7.816,0.9999901800390142,89.72819604614176
7.824,0.9999904023931325,89.24516292174907
7.832,0.999990625911627,88.76140730346194
7.84,0.9999908505255667,88.27692734567655
7.848,0.9999910761658378,87.79172125002266
7.856,0.9999913027631607,87.30578726593927
7.864,0.999991530248109,86.81912369125189
7.872,0.9999917585511267,86.33172887275065
7.88,0.9999919876025484,85.8436012067697
7.888,0.9999922173326156,85.3547391397673
7.896,0.9999924476714958,84.8651411689068
7.904,0.9999926785493012,84.37480584263798
7.912,0.9999929098961071,83.88373176127911
7.92,0.9999931416419705,83.39191757759912
7.928,0.9999933737169476,82.89936199739984
7.936,0.9999936060511145,82.40606378009846
7.944,0.9999938385745829,81.91202173930962
7.952,0.9999940712175219,81.41723474342704
7.96,0.9999943039101749,80.92170171620488
7.968,0.999994536582878,80.42542163733825
7.976,0.9999947691660798,79.92839354304273
7.984,0.9999950015903603,79.43061652663314
7.992,0.9999952337864485,78.93208973910072
8.0,0.9999954656852422,78.43281238968906
8.008,0.9999956972178267,77.93278374646849
8.016,0.9999959283154936,77.43200313690816
8.024000000000001,0.9999961589097593,76.93046994844707
8.032,0.9999963889323848,76.42818362906186
8.04,0.9999966183153934,75.92514368783257
8.048,0.9999968469910909,75.42134969550581
8.056000000000001,0.9999970748920837,74.91680128505546
8.064,0.9999973019512967,74.41149815223955
8.072,0.9999975281019956,73.90544005615415
8.08,0.999997753277801,73.39862681978396
8.088000000000001,0.9999979774127118,72.89105833054937
8.096,0.9999982004411208,72.38273454084893
8.104,0.9999984222978349,71.8736554685979
8.112,0.9999986429180939,71.36382119776256
8.120000000000001,0.999998862237589,70.8532318788901
8.128,0.9999990801924813,70.341887729633
8.136,0.999999296719421,69.82978903526846
8.144,0.9999995117555657,69.3169361492127
8.152000000000001,0.9999997252385987,68.80332949352984
8.16,0.9999999371067478,68.28896955943439
8.168,1.0,67.77385690778755
8.176,1.0,67.2579921695877
8.184000000000001,0.9999999999999999,66.74137604645425
8.192,0.9999999999999999,66.22400931110406
8.2,1.0,65.70589280782085
8.208,1.0,65.18702745291753
8.216000000000001,0.9999999999999999,64.66741423519103
8.224,1.0,64.14705421636853
8.232,1.0,63.62594853154563
8.24,1.0,63.10409838961649
8.248000000000001,1.0,62.58150507369527
8.256,0.9999999999999999,62.05816994152796
8.264,1.0,61.53409442589504
8.272,0.9999999999999998,61.00928003500515
8.280000000000001,1.0,60.483728352878636
8.288,0.9999999999999999,59.95744103972086
8.296,1.0,59.43041983228491
8.304,1.0,58.90266654422426
8.312,1.0,58.374183066434504
8.32,0.9999999999999999,57.84497136738288
8.328,1.0,57.315033493427904
8.336,0.9999999999999999,56.78437156912548
8.344,1.0,56.2529877975249
8.352,0.9999999999999999,55.72088446045052
8.36,1.0,55.18806391877289
8.368,0.9999999999999999,54.65452861266521
8.376,1.0,54.120281061848274
8.384,1.0,53.585323865820484
8.392,1.0,53.04965970407593
8.4,1.0,52.513291336306644
8.408,0.9999999999999999,51.97622160259273
8.416,1.0,51.43845342357595
8.424,1.0,50.899989800620666
8.432,1.0,50.36083381595787
8.44,1.0,49.82098863281594
8.448,1.0,49.280457495533966
8.456,0.9999999999999999,48.73924372966136
8.464,0.9999999999999999,48.19735074203955
8.472,1.0,47.65478202086938
8.48,0.9999999999999998,47.111541135760255
8.488,0.9999999999999999,46.56763173776445
8.496,1.0,46.0230575593926
8.504,0.9999999999999999,45.477822414614124
8.512,0.9999999999999999,44.93193019883822
8.52,1.0000000000000002,44.38538488887934
8.528,0.9999999999999999,43.838190542902986
8.536,0.9999999999999999,43.29035130035534
8.544,1.0,42.74187138187306
8.552,0.9999999999999999,42.192755089176316
8.56,1.0,41.64300680494157
8.568,1.0,41.09263099265758
8.576,1.0,40.5416321964604
8.584,0.9999999999999999,39.99001504095137
8.592,0.9999999999999999,39.437784230993906
8.6,1.0,38.88494455149288
8.608,1.0,38.33150086715243
8.616,0.9999999999999999,37.77745812221608
8.624,0.9999999999999999,37.22282134018523
8.632,0.9999999999999999,36.66759562351937
8.64,1.0,36.11178615331463
8.648,0.9999999999999998,35.555398188963935
8.656,0.9999999999999999,34.99843706779488
8.664,0.9999999999999999,34.440908204689435
8.672,1.0,33.882817091681034
8.68,1.0,33.3241692975333
8.688,1.0,32.764970467295996
8.696,0.9999999999999998,32.20522632184264
8.704,1.0,31.644942657385123
8.712,1.0,31.084125344969884
8.72,1.0,30.522780329951097
8.728,1.0,29.96091363144534
8.736,1.0,29.398531341763267
8.744,1.0,28.835639625822715
8.752,1.0,28.27224472053888
8.76,1.0,27.708352934195855
8.768,1.0,27.143970645795505
8.776,1.0,26.57910430438755
8.784,1.0,26.013760428377193
8.792,1.0,25.44794560481407
8.8,1.0,24.881666488658897
8.808,0.9999999999999999,24.314929802031568
8.815999999999999,1.0,23.74774233343721
8.824,0.9999999999999998,23.1801109369733
8.832,0.9999999999999999,22.61204253151655
8.84,1.0,22.04354409988945
8.847999999999999,1.0,21.47462268800691
8.856,1.0,20.90528540400392
8.864,1.0,20.335539417343625
8.872,1.0,19.765391957905607
8.879999999999999,1.0,19.19485031505517
8.888,1.0,18.623921836694077
8.896,0.9999999999999999,18.052613928292615
8.904,0.9999999999999999,17.480934051902757
8.911999999999999,1.0,16.908889725152946
8.92,0.9999999999999999,16.33648852022544
8.928,1.0,15.763738062815792
8.936,0.9999999999999999,15.190646031074486
8.943999999999999,1.0,14.617220154531129
8.952,0.9999999999999999,14.043468213002326
8.96,1.0,13.469398035482872
8.968,1.0,12.89501749902005
8.975999999999999,1.0000000000000002,12.320334527571857
8.984,1.0,11.745357090850073
8.992,0.9999999999999999,11.170093203147932
9.0,1.0,10.594550922152138
9.008,0.9999999999999999,10.018738347740298
9.016,0.9999999999999999,9.442663620764478
9.024000000000001,0.9999999999999999,8.866334921820759
9.032,1.0,8.289760470004742
9.04,0.9999999999999999,7.712948521653855
9.048,0.9999999999999999,7.13590736907727
9.056000000000001,1.0,6.558645339273583
9.064,0.9999999999999999,5.98117079263582
9.072,0.9999999999999999,5.403492121645006
9.08,0.9999999999999999,4.825617749553018
9.088000000000001,1.0,4.24755612905482
9.096,1.0,3.6693157409498083
9.104,1.0,3.090905092793459
9.112,1.0,2.5123327175400507
9.120000000000001,0.9999999999999998,1.9336071721765404
9.128,1.0,1.3547370363474396
9.136,0.9999999999999999,0.7757309109718009
9.144,0.9999999999999999,0.19659741685320334
9.152000000000001,1.0000000000000002,-0.3826548067172397
9.16,0.9999999999999999,-0.9620171033649093
9.168,0.9999999999999999,-1.5414808010417274
9.176,0.9999999999999999,-2.1210372134411433
9.184000000000001,0.9999999999999999,-2.700677641418219
9.192,1.0,-3.280393374414688
9.2,1.0,-3.86017569188803
9.208,1.0,-4.440015864743543
9.216000000000001,1.0,-5.019905156769339
9.224,1.0,-5.599834826074422
9.232,1.0,-6.179796126528634
9.24,0.9999999999999999,-6.759780309203544
9.248000000000001,0.9999999999999999,-7.33977862381429
9.256,0.9999999999999998,-7.919782320162308
9.264,1.0,-8.499782649577897
9.272,1.0,-9.07977086636176
9.280000000000001,0.9999999999999999,-9.659738229225253
9.288,1.0,-10.239676002729539
9.296,0.9999999999999999,-10.819575458722571
9.304,0.999999957938807,-11.399427877772819
9.312000000000001,0.9999997894759395,-11.979224550599785
9.32,0.9999996209118562,-12.558956779501363
9.328,0.9999994523096848,-13.138615879776824
9.336,0.999999283732309,-13.718193181144759
9.344,0.9999991152423425,-14.297680029155474
9.352,0.9999989469021036,-14.87706778659896
9.36,0.9999987787735861,-15.456347834904802
9.368,0.999998610918437,-16.035511575537313
9.376,0.9999984433979288,-16.61455043138143
9.384,0.9999982762729334,-17.19345584812301
9.392,0.9999981096039002,-17.77221929561888
9.4,0.9999979434508269,-18.35083226926025
9.408,0.9999977778732383,-18.929286291325116
9.416,0.9999976129301597,-19.507572912323035
9.424,0.999997448680094,-20.085683712327818
9.432,0.9999972851809983,-20.663610302301937
9.44,0.9999971224902595,-21.241344325407887
9.448,0.9999969606646716,-21.818877458310364
9.456,0.9999967997604128,-22.396201412464528
9.464,0.9999966398330243,-22.97330793539422
9.472,0.9999964809373869,-23.55018881195561
9.48,0.9999963231276999,-24.126835865589833
9.488,0.9999961664574601,-24.703240959560233
9.496,0.9999960109794414,-25.279395998177918
9.504,0.9999958567456724,-25.855292928011213
9.512,0.9999957038074199,-26.430923739082562
9.52,0.9999955522151658,-27.00628046604863
9.528,0.9999954020185905,-27.581355189367237
9.536,0.9999952532665533,-28.156140036446693
9.544,0.9999951060070736,-28.730627182781458
9.552,0.9999949602873147,-29.304808853069357
9.56,0.9999948161535648,-29.878677322314687
9.568,0.9999946736512225,-30.452224916912108
9.576,0.999994532824777,-31.025444015716015
9.584,0.9999943937177962,-31.598327051090095
9.592,0.999994256372909,-32.170866509941526
9.6,0.9999941208317908,-32.743054934735376
9.608,0.9999939871351492,-33.314884924492716
9.616,0.999993855322711,-33.88634913576863
9.624,0.9999937254332084,-34.457440283613444
9.632,0.9999935975043652,-35.02815114251345
9.64,0.9999934715728863,-35.598474547314396
9.648,0.9999933476744447,-36.16840339412409
9.656,0.9999932258436708,-36.7379306411975
9.664,0.999993106114142,-37.30704930980042
9.672,0.9999929885183714,-37.8757524850555
9.68,0.9999928730877994,-38.44403331676644
9.688,0.9999927598527836,-39.01188502022435
9.696,0.9999926488425922,-39.579300876991866
9.704,0.9999925400853925,-40.14627423566934
9.712,0.9999924336082471,-40.71279851263858
9.72,0.9999923294371039,-41.2788671927884
9.728,0.9999922275967921,-41.84447383021747
9.736,0.999992128111015,-42.40961204891906
9.744,0.9999920310023442,-42.97427554344274
9.752,0.999991936292216,-43.53845807953798
9.76,0.999991844000927,-44.102153494774726
9.768,0.9999917541476286,-44.665355699145415
9.776,0.9999916667503252,-45.22805867564439
9.784,0.9999915818258722,-45.79025648082853
9.792,0.9999914993899717,-46.35194324535522
9.8,0.9999914194571722,-46.91311317450166
9.808,0.9999913420408671,-47.473760548661474
9.816,0.999991267153293,-48.03387972382282
9.824,0.9999911948055321,-48.59346513202372
9.832,0.9999911250075095,-49.15251128178919
9.84,0.9999910577679957,-49.71101275854554
9.847999999999999,0.999990993094607,-50.2689642250165
