freq,mag,phase
6.0,1.0003769630064079,-66.92811018534474
6.003789824,1.0003262144422604,-67.11289921358264
6.007579136,1.000255004132865,-67.2969598000882
6.01136896,1.0001683281688265,-67.47987401439096
6.015158784,1.0000713663256549,-67.66148679736848
6.018948608,0.9999700834449087,-67.84174119161527
6.02273792,0.9998708855735372,-68.02059362690038
6.026527744,0.9997792298021898,-68.1981306409427
6.030317568,0.9997011816240502,-68.37446111040653
6.03410688,0.9996416218985331,-68.54986614596633
6.037896704,0.9996040210316948,-68.72462366648291
6.041686528,0.9995907354459851,-68.8990034000805
6.04547584,0.9996024132560394,-69.07341396868217
6.049265664,0.9996386594838952,-69.24822250253389
6.053055488,0.9996970210875538,-69.42370470508621
6.056845312,0.9997741965413396,-69.60023876654101
6.060634624,0.9998652425219743,-69.77797932209926
6.064424448,0.9999646098916716,-69.95708554459463
6.068214272,1.000066362464663,-70.13767723283243
6.072003584,1.0001644477113616,-70.31973950146977
6.075793408,1.0002522184597162,-70.50317388270875
6.079583232,1.0003248986399107,-70.68772235952756
6.083373056,1.0003778730612074,-70.87330305040614
6.087162368,1.000407948725637,-71.05941848544246
6.090952192,1.000413264412104,-71.24582902445212
6.094742016,1.000393405408495,-71.43220117426479
6.098531328,1.0003494149809438,-71.61815363887095
6.102321152,1.0002843248169784,-71.80334693428932
6.106110976,1.0002017523647277,-71.9875430556432
6.109900288,1.0001070230998124,-72.17049950312195
6.113690112,1.000005674402422,-72.35205690953435
6.117479936,0.9999040407483771,-72.53221884854496
6.12126976,0.9998082801859962,-72.71104006805365
6.125059072,0.9997243889171061,-72.88858029379865
6.128848896,0.9996573919286708,-73.06506885747369
6.13263872,0.9996111905351264,-73.24081303687421
6.136428032,0.9995891771625132,-73.41604879980692
6.140217856,0.9995921107319595,-73.59118171769245
6.14400768,0.9996201190476136,-73.7665994875601
6.147797504,0.9996716240879296,-73.9426014507955
6.151586816,0.9997432229417563,-74.11951926505297
6.15537664,0.9998306256501615,-74.29754184844022
6.159166464,0.9999287032702155,-74.47700474672625
6.162955776,1.0000311284658245,-74.65790650813521
6.1667456,1.0001318854245926,-74.84027631458655
6.170535424,1.000224795490737,-75.02406565325018
6.174324736,1.0003040187686763,-75.20910178902342
6.17811456,1.0003648057912309,-75.39517164500829
6.181904384,1.0004036129542764,-75.58200596021096
6.185694208,1.0004178688357124,-75.76927147761188
6.18948352,1.0004064320915347,-75.95653105083744
6.193273344,1.0003706032766384,-76.14352764115672
6.197063168,1.000312010748953,-76.32985399065451
6.20085248,1.0002343038181984,-76.5152551446004
6.204642304,1.000142573713669,-76.69954003579726
6.208432128,1.0000419749462999,-76.8824422854146
6.21222144,0.99993898452484,-77.06386561058852
6.216011264,0.9998396854643727,-77.24392727209572
6.219801088,0.9997502371651773,-77.42269612013057
6.223590912,0.9996759449498392,-77.60028858991343
6.227380224,0.9996216599008582,-77.77696086237935
6.231170048,0.9995906784397959,-77.9531530534514
6.234959872,0.9995847519521864,-78.12900309224072
6.238749184,0.9996042400427102,-78.30504163983797
6.242539008,0.9996479433082935,-78.48151711634465
6.246328832,0.9997135086782771,-78.65885033508123
6.250118656,0.999796567840924,-78.83724651910708
6.253907968,0.9998924420573425,-79.01696556853342
6.257697792,0.999994892858054,-79.1981190459326
6.261487616,1.0000977594008407,-79.38077055102946
6.265276928,1.0001949768772078,-79.56486927997807
6.269066752,1.0002802412482366,-79.7503267570747
6.272856576,1.0003486989801462,-79.93691742330073
6.276645888,1.0003960716425047,-80.12435307426789
6.280435712,1.0004190415102945,-80.31230877940237
6.284225536,1.0004169004420915,-80.50045340034124
6.28801536,1.0003891275040755,-80.68840614513252
6.291804672,1.0003377511988065,-80.87585753104891
6.295594496,1.0002657613608612,-81.06244957789782
6.29938432,1.0001776307852077,-81.24791252643695
6.303173632,1.000078779884984,-81.43207068108524
6.306963456,0.9999749011317735,-81.61483391739571
6.31075328,0.9998727812607718,-81.79616787432951
6.314543104,0.9997782762241487,-81.9761153848774
6.318332416,0.99969749770568,-82.15481352835268
6.32212224,0.9996351863809821,-82.33250575099157
6.325912064,0.9995954187308157,-82.50956205384976
6.329701376,0.9995803029314658,-82.68621830543044
6.3334912,0.9995907584400227,-82.86289197553262
6.337281024,0.9996266973950807,-83.03989536813906
6.341070336,0.9996853673384797,-83.21761415936932
6.34486016,0.9997634469394866,-83.39634379406283
6.348649984,0.9998561228631858,-83.57632031224547
6.352439808,0.999957758216346,-83.75767751085893
6.35622912,1.00006234781096,-83.94057523919913
6.360018944,1.0001629065357305,-84.12497733844594
6.363808768,1.0002540167721226,-84.31074052721463
6.36759808,1.0003294981858348,-84.49773372713541
6.371387904,1.0003851587162444,-84.68569446098802
6.375177728,1.000417465174425,-84.87432494026233
6.378967552,1.0004242338227647,-85.06326231656446
6.382756864,1.0004052741694671,-85.25211472400896
6.386546688,1.0003615651026858,-85.44061521628376
6.390336512,1.0002960378546377,-85.62828485395573
6.394125824,1.000212319081846,-85.81499356265934
6.397915648,1.0001156093689376,-86.00037089395335
6.401705472,1.0000120156703833,-86.18442337139528
6.405494784,0.9999075143804912,-86.36700308957809
6.409284608,0.9998088910250712,-86.54812327556782
6.413074432,0.9997217938084667,-86.72797941258544
6.416864256,0.9996518977079993,-86.90671865231529
6.420653568,0.9996032588725182,-87.08466491449015
6.424443392,0.9995789473380194,-87.26211996643508
6.428233216,0.9995804694464744,-87.4394083442146
6.432022528,0.999607719466308,-87.61695379483601
6.435812352,0.9996591336508519,-87.79509159303585
6.439602176,0.9997315219412265,-87.97411118113956
6.443392,0.999820431112929,-88.1543330735916
6.447181312,0.9999204967019161,-88.33590459488177
6.450971136,1.00002536654938,-88.5189974582727
6.45476096,1.0001291003336001,-88.70360401755867
6.458550272,1.0002251303760563,-88.88963951210405
6.462340096,1.0003075411081324,-89.07697599172069
6.46612992,1.0003711811163154,-89.26541350387156
6.469919232,1.000412490969454,-89.45458744888512
6.473709056,1.0004285271759663,-89.644272217317
6.47749888,1.0004185725013985,-89.83395576004732
6.481288704,1.0003832218672732,-90.02336920343963
6.485078016,1.0003243139545985,-90.2121863220097
6.48886784,1.0002458646300019,-90.39998755980939
6.492657664,1.0001524370387453,-90.58661988344689
6.496446976,1.0000498016375141,-90.77188657127668
6.5002368,0.9999437689255685,-90.95567022092094
6.504026624,0.9998414373999672,-91.13802539927715
6.507816448,0.9997489079372746,-91.31900703974127
6.51160576,0.9996714528245468,-91.49877915694267
6.515395584,0.9996144608756717,-91.67765603007692
6.519185408,0.9995809203140674,-91.85590278029531
6.52297472,0.9995731405294427,-92.03384283840352
6.526764544,0.9995913851709043,-92.21193124023785
6.530554368,0.999634809334633,-92.3904376035742
6.53434368,0.9997007383868121,-92.569809177168
6.538133504,0.999785098637926,-92.75020196153491
6.541923328,0.9998827281364869,-92.93198541450373
6.545713152,0.999987653400449,-93.1152176891302
6.549502464,1.0000935143339689,-93.29997673439905
6.553292288,1.000193729948613,-93.48623083117886
6.557082112,1.0002824599596438,-93.67387251461435
6.560871424,1.0003538855233762,-93.86268454899057
6.564661248,1.0004040179599167,-94.05237957358146
6.568451072,1.0004294763790438,-94.24264047901178
6.572240896,1.0004287867015262,-94.43311501918271
6.576030208,1.0004021377654855,-94.6234183912061
6.579820032,1.0003509189881472,-94.81318980013002
6.583609856,1.0002783426518977,-95.00214123069927
6.587399168,1.0001888223253872,-95.18991414478806
6.591188992,1.0000877187466852,-95.37637236554028
6.594978816,0.9999812422938964,-95.5614001719238
6.598768128,0.9998759984657924,-95.74494586033056
6.602557952,0.9997783446268906,-95.927052907248
6.606347776,0.9996942583491749,-96.10787160972616
6.6101376,0.9996289569255351,-96.2876333547161
6.613926912,0.9995861767531989,-96.46670047253319
6.617716736,0.9995689608972791,-96.64534715746291
6.62150656,0.9995781004832404,-96.82394521259911
6.625295872,0.9996130627372544,-97.00288221097848
6.629085696,0.9996719149691927,-97.182498637381
6.63287552,0.9997508739000206,-97.36316124926428
6.636664832,0.9998452241067546,-97.54503428665465
6.640454656,0.9999492490978917,-97.72837955167672
6.64424448,1.0000564547121324,-97.91329073353104
6.648034304,1.0001603849497642,-98.09970238378439
6.651823616,1.0002546999494535,-98.28750980291578
6.65561344,1.0003335931400652,-98.47666460203193
6.659403264,1.0003922583668652,-98.66675504852732
6.663192576,1.000427125033741,-98.85759642633354
6.6669824,1.0004361078690418,-99.0487320243537
6.670772224,1.0004184254401267,-99.2398424337681
6.674562048,1.0003753421525288,-99.43054887616488
6.67835136,1.000309328393661,-99.62052125621766
6.682141184,1.0002244208291875,-99.80943104667799
6.685931008,1.0001259319334914,-99.99705150292748
6.68972032,1.0000197106776196,-100.18324272487729
6.693510144,0.9999123286954912,-100.36796344223133
6.697299968,0.9998102256842226,-100.55118521790024
6.70108928,0.999719764292459,-100.73305466552674
6.704879104,0.9996464743579964,-100.91378079663777
6.708668928,0.9995948303476309,-101.0936368126141
6.712458752,0.9995680114271298,-101.27297448628092
6.716248064,0.9995675905870784,-101.45211413437892
6.720037888,0.9995938195407978,-101.63147858957423
6.723827712,0.9996448696156369,-101.8113952013019
6.727617024,0.9997178932975076,-101.99221017090919
6.731406848,0.9998081137959506,-102.17427281090579
6.735196672,0.999910223777201,-102.35768026833955
6.738986496,1.0000181325758284,-102.54262427325847
6.742775808,1.0001250118127727,-102.72911771855505
6.746565632,1.000224364686427,-102.91709206731154
6.750355456,1.0003101870301494,-103.1064578120709
6.754144768,1.0003772777178577,-103.29691387982363
6.757934592,1.0004214245631062,-103.48816734888194
6.761724416,1.000439950592931,-103.67990201348138
6.765513728,1.0004317782444936,-103.8717793280347
6.769303552,1.0003972732212405,-104.06334651615714
6.773093376,1.0003385607455533,-104.25423864409784
6.7768832,1.0002591511659278,-104.44421093295011
6.780672512,1.0001640666454412,-104.63298164637429
6.784462336,1.0000588766618959,-104.82031751233005
6.78825216,0.9999501539017907,-105.0061537661664
6.792041472,0.9998444833784831,-105.19050424370118
6.795831296,0.999748194788017,-105.3734138241395
6.79962112,0.9996674114010451,-105.55510707684083
6.803410944,0.99960712350033,-105.73576476699873
6.807200256,0.9995706745623001,-105.91577292909871
6.81099008,0.9995605675470343,-106.09547904762589
6.814779904,0.9995774923008639,-106.27523556285713
6.818569216,0.9996202711067094,-106.45546295175211
6.82235904,0.9996863400198238,-106.6365132773812
6.826148864,0.9997718057196533,-106.818614817112
6.829938176,0.9998712391220725,-107.00207458481114
6.833728,0.9999789008180597,-107.1870171219882
6.837517824,1.000087876931023,-107.37356771712363
6.841307648,1.000191644550432,-107.56163900096395
6.84509696,1.0002838993345506,-107.75114614080276
6.848886784,1.0003589564057147,-107.94184497045339
6.852676608,1.0004121995805906,-108.13346228138593
6.85646592,1.0004404375046783,-108.32573638613637
6.860255744,1.000441900554606,-108.51821058723475
6.864045568,1.0004165209346942,-108.71055492586706
6.867835392,1.00036569999703,-108.9023928740756
6.871624704,1.00029261231546,-109.09333143137134
6.875414528,1.0002016079557778,-109.28314122822034
6.879204352,1.0000984974561034,-109.47157858333303
6.882993664,0.999989194156444,-109.65854241277852
6.886783488,0.9998805251462589,-109.84395486021256
6.890573312,0.9997792887835334,-110.02792036843479
6.894362624,0.9996914226926235,-110.21053885634848
6.898152448,0.9996226580230692,-110.3920566492459
6.901942272,0.9995767143227255,-110.57279881829844
6.905732096,0.9995568822526386,-110.75303115864709
6.909521408,0.9995640428207966,-110.93323042232235
6.913311232,0.9995980033939421,-111.11374499718606
6.917101056,0.9996567114531651,-111.29492995248879
6.920890368,0.9997363906818019,-111.4771401534377
6.924680192,0.9998324771687112,-111.66059843003781
6.928470016,0.9999388655861163,-111.84553246467837
6.93225984,1.0000491518008405,-112.03203331460827
6.936049152,1.0001565888089188,-112.22010026525794
6.939838976,1.0002546002482655,-112.40968949322675
6.9436288,1.0003372974881781,-112.6005738058281
6.947418112,1.0003995363269425,-112.79245424118756
6.951207936,1.0004374378808953,-112.98514639922574
6.95499776,1.0004487089589356,-113.17818405122563
6.958787072,1.0004329069327755,-113.37119938203158
6.962576896,1.0003905297775797,-113.5638234470459
6.96636672,1.000324407119698,-113.75569667966055
6.970156544,1.0002385716863795,-113.94651401071813
6.973945856,1.0001379874743586,-114.13605352792649
6.97773568,1.0000292124594623,-114.32408227374388
6.981525504,0.999918506919555,-114.51056180429254
6.985314816,0.9998127832081467,-114.69555554518966
6.98910464,0.9997185567995571,-114.87909507659708
6.992894464,0.9996414501586399,-115.06145954139785
6.996684288,0.9995862990994667,-115.2428847501477
7.0004736,0.9995565005772111,-115.42371754295237
7.004263424,0.9995538481902996,-115.60435425002765
7.008053248,0.9995785267676542,-115.78515344681664
7.01184256,0.9996291343399035,-115.96648015437121
7.015632384,0.9997024392467888,-116.1487483677586
7.019422208,0.9997940909592324,-116.33218757750225
7.02321152,0.9998984193683438,-116.51707148107273
7.027001344,1.0000091970770415,-116.70347018311637
7.030791168,1.0001194736207577,-116.89150294196507
7.034580992,1.0002227185027286,-117.08106043593959
7.038370304,1.0003124520446272,-117.2720094284695
7.042160128,1.000383309825414,-117.46411854888335
7.045949952,1.0004308001515947,-117.65710027640014
7.049739264,1.0004521243176878,-117.85060595256185
7.053529088,1.0004460766689227,-118.04422266002022
7.057318912,1.0004127385059693,-118.23756366364945
7.061108224,1.0003542443820104,-118.43031142565953
7.064898048,1.0002741744609427,-118.62208541317904
7.068687872,1.0001774237032341,-118.81260589403101
7.072477696,1.0000698368601844,-119.00164472271959
7.076267008,0.999957841179288,-119.18919519760874
7.080056832,0.9998484995614959,-119.37517808493737
7.083846656,0.999748479473525,-119.55967817865385
7.087635968,0.9996637154075474,-119.74286496419758
7.091425792,0.9995995070008195,-119.92500080856303
7.095215616,0.9995598398436554,-120.10641961834301
7.09900544,0.9995470784087161,-120.28747567257295
7.102794752,0.9995621860760249,-120.46854574828726
7.106584576,0.9996040173069506,-120.65006848118531
7.1103744,0.9996702215664885,-120.83236468928462
7.114163712,0.9997565387265465,-121.01577324718559
7.117953536,0.9998580522185209,-121.20051369871203
7.12174336,0.9999683039499365,-121.38681677297421
7.125532672,1.000080635776885,-121.57469842300031
7.129322496,1.000188321353168,-121.76416624687286
7.13311232,1.0002845329995091,-121.95512014407718
7.136902144,1.000363604180731,-122.14734225265943
7.140691456,1.0004206392468853,-122.34055322830346
7.14448128,1.0004519503567364,-122.53438267921011
7.148271104,1.0004559742898866,-122.72852792338327
7.152060416,1.000432094958901,-122.92249523852713
7.15585024,1.0003819374112657,-123.11600481602889
7.159640064,1.00030858309353,-123.30860371444383
7.163429888,1.000216231184563,-123.50008469753548
7.1672192,1.0001108171478001,-123.6901688626695
7.171009024,0.9999985505745984,-123.87871166405432
7.174798848,0.9998863128141177,-124.06564768459877
7.17858816,0.9997810664602991,-124.25107195793085
7.182377984,0.9996891767800115,-124.43510700830805
7.186167808,0.9996162933933683,-124.61798323070613
7.18995712,0.999566823523185,-124.79995780615232
7.193746944,0.9995438948200375,-124.98145525542978
7.197536768,0.9995488468201734,-125.16282768212716
7.201326592,0.9995814656938891,-125.34450096205074
7.205115904,0.9996397352353333,-125.52681919667198
7.208905728,0.9997202353157901,-125.71013838655053
7.212695552,0.9998178714662097,-125.89478847627777
7.216484864,0.9999267986785229,-126.08087551030867
7.220274688,1.0000403339501438,-126.26854617135021
7.224064512,1.0001515997171577,-126.45789397376303
7.227854336,1.0002537123623498,-126.64876367203053
7.231643648,1.0003405414533375,-126.84098027500659
7.235433472,1.0004067357417696,-127.03429990940988
7.239223296,1.0004481910498446,-127.22841780599248
7.243012608,1.0004623732329516,-127.42294775451369
7.246802432,1.0004484244896699,-127.61747500542396
7.250592256,1.0004071471284195,-127.81165418877873
7.254381568,1.0003411339588297,-128.00507700045117
7.258171392,1.0002542067322595,-128.1974295095429
7.261961216,1.0001517951600916,-128.38842275107638
7.26575104,1.0000400671097094,-128.57793616255532
7.269540352,0.9999258245127363,-128.76585326335152
7.273330176,0.9998162177057947,-128.9521711176553
7.27712,0.9997178069035614,-129.1369750235005
7.280909312,0.9996364673425101,-129.32058174799616
7.284699136,0.9995775124905486,-129.50315230910115
7.28848896,0.9995442997121764,-129.68510748303865
7.292278784,0.999538959743272,-129.86679097003326
7.296068096,0.9995618884389049,-130.04859656831903
7.29985792,0.9996116733570575,-130.23094259490784
7.303647744,0.9996853266338717,-130.41417271588818
7.307437056,0.9997782971975042,-130.59859628507664
7.31122688,0.9998849521961972,-130.7844700837723
7.315016704,0.9999988257808601,-130.97192300425178
7.318806016,1.0001128516545663,-131.1610161182909
7.32259584,1.0002201720272879,-131.35171982113857
7.326385664,1.0003142404582874,-131.5438707219918
7.330175488,1.0003893334800344,-131.73725309194606
7.3339648,1.0004406817166662,-131.93148496922947
7.337754624,1.0004652472268418,-132.12632413896594
7.341544448,1.0004615538357213,-132.3213033180411
7.34533376,1.000429707921201,-132.5160573244978
7.349123584,1.0003716676779724,-132.71022046082342
7.352913408,1.000290943451669,-132.90336597338782
7.356703232,1.0001925602600654,-133.09525802541512
7.360492544,1.0000823149351372,-133.28568703896698
7.364282368,0.9999669903201889,-133.47448138035966
7.368072192,0.9998537441929134,-133.6616916947109
7.371861504,0.999749329752823,-133.8473530311689
7.375651328,0.9996602976156647,-134.0316449808027
7.379441152,0.9995919547614853,-134.2148331765916
7.383230464,0.9995484815368285,-134.39722224847392
7.387020288,0.9995326425252219,-134.57919298223766
7.390810112,0.9995454737907813,-134.76115517736707
7.394599936,0.9995862075036912,-134.94350082976644
7.398389248,0.9996522253219865,-135.1266081319715
7.402179072,0.9997396880920352,-135.31085017165486
7.405968896,0.9998431337329876,-135.49644890803913
7.409758208,0.99995630637882,-135.68361145229807
7.413548032,1.0000724110196453,-135.872393025356
7.417337856,1.0001840707086889,-136.0628304900396
7.42112768,1.0002848272059432,-136.25480351066426
7.424916992,1.0003682379188228,-136.44810030351874
7.428706816,1.0004293689819375,-136.6424248791643
7.43249664,1.0004643389951768,-136.83745676275885
7.436285952,1.0004710534824746,-137.0328242413031
7.440075776,1.0004492334474808,-137.22804443407395
7.4438656,1.0003998637934002,-137.42279078548134
7.447654912,1.0003262170574814,-137.61668856742332
7.451444736,1.0002325631420237,-137.8093983062959
7.45523456,1.000124845435686,-138.00069496643027
7.459024384,1.0000093572985775,-138.19041509918836
7.462813696,0.999893177227727,-138.37845034518145
7.46660352,0.9997836018109346,-138.564908621199
7.470393344,0.999687247645793,-138.74990229185985
7.474182656,0.9996098944161566,-138.93366334360695
7.47797248,0.9995564309329877,-139.11650829383663
7.481762304,0.9995299682884758,-139.29878966995824
7.485551616,0.9995324115102142,-139.48087570219906
7.48934144,0.9995634041097696,-139.6632387355564
7.493131264,0.9996211743114626,-139.8462374494552
7.496921088,0.9997022453760854,-140.03025280158099
7.5007104,0.9998015714067129,-140.21553123394492
7.504500224,0.9999131278355198,-140.40233564605845
7.508290048,1.0000302165737245,-140.59077484317586
7.51207936,1.0001456211116084,-140.78089301548079
