freq,mag,phase
6.0,1.000065025366739,37.203701958198494
6.014209536,1.0000686471427487,36.863398483964794
6.028419072,1.0000693564570218,36.523064135082045
6.042628608,1.000066508283558,36.18269031446191
6.056838144,1.0000603883931978,35.84242287141301
6.071048192,1.0000512222892184,35.50220239538469
6.085257728,1.0000393366435365,35.16207106937783
6.099467264,1.0000254535060171,34.822171478500834
6.1136768,1.0000100857714724,34.48237546255223
6.127886336,0.999993965486567,34.14281317542219
6.142095872,0.9999777784151789,33.80340171900375
6.156305408,0.9999623973555279,33.464221185614335
6.170514944,0.9999483430907271,33.125181246472316
6.18472448,0.9999364071273951,32.78630148556951
6.198934528,0.9999271300463881,32.44754259614967
6.213144064,0.9999208965643646,32.108843970934494
6.2273536,0.9999180195399637,31.77025341344189
6.241563136,0.9999186614105612,31.431623578851603
6.255772672,0.9999228154136652,31.092950908856864
6.269982208,0.9999302514144407,30.754223581289562
6.284191744,0.9999406687678384,30.41538841149321
6.29840128,0.9999535791858808,30.076371114735668
6.312610816,0.9999683543520561,29.73715539982114
6.326820352,0.9999844086778918,29.39779738442647
6.3410304,1.000000993501825,29.058204403217438
6.355239936,1.0000172880059537,28.71842054190316
6.369449472,1.0000325431455976,28.378412148845033
6.383659008,1.0000461449755202,28.0381794722793
6.397868544,1.0000573731396747,27.69784266424607
6.41207808,1.0000657667397774,27.357317451289948
6.426287616,1.0000709025999037,27.016744940609218
6.440497152,1.0000725189534623,26.67612355552873
6.454706688,1.000070562707404,26.33549874117302
6.468916736,1.000065144313167,25.994851815875467
6.483126272,1.0000563978667414,25.65433991255151
6.497335808,1.0000447979600209,25.31389018371613
6.511545344,1.0000309080952263,24.973607782899734
6.52575488,1.0000153205579754,24.633517796515196
6.539964416,0.9999986104066045,24.293595702125252
6.554173952,0.9999817060175663,23.95388750215161
6.568383488,0.9999653892482668,23.614372832520296
6.582593024,0.9999504532092897,23.27504162863854
6.596803072,0.9999373751998974,22.935859296334264
6.611012608,0.999926895564915,22.59681741618375
6.625222144,0.9999194976202691,22.2578722522359
6.63943168,0.9999155724336694,21.919010891621525
6.653641216,0.9999152643112772,21.58017525084141
6.667850752,0.9999185682763746,21.2412819956532
6.682060288,0.9999254111666873,20.902337775358127
6.696269824,0.999935381583351,20.563268784129875
6.71047936,0.9999481437879911,20.224067027746727
6.724689408,0.9999631227419015,19.884645519237957
6.738898944,0.9999795617288706,19.54505497897785
6.75310848,0.9999966741108549,19.205229488091515
6.767318016,1.0000137688655704,18.86519811865342
6.781527552,1.0000300469518901,18.5249619586337
6.795737088,1.0000447271656248,18.184513408113556
6.809946624,1.0000571815041794,17.843892984537906
6.82415616,1.0000667249650528,17.503110559386993
6.838365696,1.0000730227548449,17.162229488427812
6.852575744,1.0000757404700138,16.82123543161358
6.86678528,1.000074713764106,16.480278129203242
6.880994816,1.0000699576718441,16.13933416239297
6.895204352,1.0000618432425883,15.798463218046132
6.909413888,1.0000505399156858,15.457689284123799
6.923623424,1.000036709029949,15.117051790294992
6.93783296,1.0000207902907075,14.776587097456716
6.952042496,1.0000036423004175,14.436319596807586
6.966252032,0.9999860967973845,14.096243411824338
6.980461568,0.9999688020505872,13.756396860700386
6.994671616,0.9999527840594973,13.416737419241532
7.008881152,0.9999385301000613,13.077268208790517
7.023090688,0.9999268348624379,12.737932139102442
7.037300224,0.9999182586156982,12.398717566055621
7.05150976,0.9999131090454623,12.059577484029564
7.065719296,0.9999116807020649,11.720490127766052
7.079928832,0.9999140876459971,11.381345745301612
7.094138368,0.9999202748466177,11.04215024531889
7.108347904,0.9999297979418178,10.702865843251935
7.122557952,0.9999423236143985,10.36344619776366
7.136767488,0.9999573549939701,10.023824672640579
7.150977024,0.9999741452213865,9.684003339960714
7.16518656,0.9999918491992876,9.343949516843118
7.179396096,1.0000097961002656,9.00366590184166
7.193605632,1.000027124476122,8.663174011755773
7.207815168,1.0000429053827078,8.322448025858645
7.222024704,1.000056547466788,7.981521109046624
7.23623424,1.0000674349301644,7.640473007347248
7.250444288,1.0000750830388074,7.299268604327646
7.264653824,1.0000788697667735,6.957970759536552
7.27886336,1.0000788443938982,6.6166312068282265
7.293072896,1.0000750765820308,6.275324632954857
7.307282432,1.0000675458567203,5.934094387342554
7.321491968,1.0000565528470629,5.592938134540231
7.335701504,1.0000427954423832,5.251953034010985
7.34991104,1.0000267288518543,4.911103666184942
7.364120576,1.0000091727870024,4.5704358827990825
7.378330624,0.9999908969327144,4.230020349681453
7.39254016,0.9999727374465148,3.889809489412732
7.406749696,0.9999554886280241,3.5498116650082623
7.420959232,0.9999399649588463,3.21000079290492
7.435168768,0.9999270281640952,2.870326612744834
7.449378304,0.999917079205636,2.530813083764351
7.46358784,0.9999106758824277,2.1913781996635535
7.477797376,0.9999080801233651,1.8519915468355093
7.492006912,0.9999095074286011,1.512625521690773
7.506216448,0.9999148669314513,1.173198966273221
7.520426496,0.9999238079600331,0.8336505494160856
7.534636032,0.9999360724078313,0.49397131158521146
7.548845568,0.9999512253825933,0.15412551911671335
7.563055104,0.9999681917206839,-0.1859419193251957
7.57726464,0.9999865660311014,-0.5262362538882344
7.591474176,1.0000052255777023,-0.86675039986162
7.605683712,1.0000236522583108,-1.2075120209459593
7.619893248,1.00004066589685,-1.54851438256985
7.634102784,1.0000556608335183,-1.889721319596286
7.648312832,1.0000679248765416,-2.231140579463533
7.662522368,1.000076832045853,-2.5726605381796728
7.676731904,1.00008205354467,-2.9142905432330712
7.69094144,1.0000832070925574,-3.255984588731375
7.705150976,1.0000803783411645,-3.5976531179541866
7.719360512,1.0000734587512796,-3.939326249036542
7.733570048,1.0000630045875905,-4.28084887122544
7.747779584,1.0000493735155813,-4.622268295497718
7.76198912,1.0000331805325142,-4.963513142402032
7.776199168,1.0000151945064601,-5.304551768258938
7.790408704,0.9999961635179099,-5.645382789011596
7.80461824,0.9999771261615478,-5.9859672284598
7.818827776,0.9999587778922077,-6.326375386796565
7.833037312,0.9999419152929255,-6.666535954450673
7.847246848,0.9999274576164934,-7.006531989844386
7.861456384,0.9999161593520982,-7.346383867587387
7.87566592,0.9999083243325125,-7.686095062260401
7.889875456,0.999904369373888,-8.025787561744087
7.904085504,0.9999046914494379,-8.365461652320471
7.91829504,0.9999091042299927,-8.705169701402424
7.932504576,0.9999174146292416,-9.0449542023456
7.946714112,0.9999294025707918,-9.384863524159645
7.960923648,0.9999443179008605,-9.724964736161361
7.975133184,0.9999616702090142,-10.065283691736422
7.98934272,0.9999805306301843,-10.405820416905868
8.003552256,1.000000119954815,-10.746603291620927
8.017761792,1.000019551786238,-11.08768052674172
8.031971328,1.000037879945207,-11.428941365200968
8.046181376,1.00005429108474,-11.770476592209855
8.060390912,1.0000680873922259,-12.112187687985903
8.074600448,1.0000784456198797,-12.45406651264196
8.088809984,1.000084982593203,-12.796095049977387
8.10301952,1.0000874801492898,-13.138133417363978
8.117229056,1.000085677387051,-13.480236725532153
8.131438592,1.000079640870961,-13.822303146827283
8.145648128,1.0000698461273578,-14.164277933295436
8.159857664,1.0000563862386547,-14.506108332539647
8.174067712,1.000040147292577,-14.847771429495216
8.188277248,1.000021878809614,-15.189216699450087
8.202486784,1.000002116149607,-15.53048066934945
8.21669632,0.9999820247530482,-15.8714860779086
8.230905856,0.9999624509486946,-16.212269044997527
8.245115392,0.9999442416346664,-16.552837983179582
8.259324928,0.9999283651751474,-16.893187324021966
8.273534464,0.9999153163217376,-17.233384651721078
8.287744,0.9999060295038766,-17.573469642957736
8.301954048,0.99990075195679,-17.913456003261103
8.316163584,0.9998998282885582,-18.253394898739124
8.33037312,0.9999031360085888,-18.593382444005574
8.344582656,0.9999107143882073,-18.933451116084804
8.358792192,0.9999221487858269,-19.2736499382374
8.373001728,0.9999369545496416,-19.614014030317403
8.387211264,0.9999545645181841,-19.95457393782155
8.4014208,0.9999738934071046,-20.295406837066324
8.415630336,0.9999944666835797,-20.636456663765834
8.429840384,1.0000149255429305,-20.97778754376775
8.44404992,1.0000345274619333,-21.31936431336394
8.458259456,1.0000524885935105,-21.661232471627873
8.472468992,1.0000676909440231,-22.003297617161873
8.486678528,1.0000796411556594,-22.345541742104718
8.500888064,1.0000878225997036,-22.68793679476495
8.5150976,1.0000918256337121,-23.030393172280633
8.529307136,1.0000911462132194,-23.372892058785062
8.543516672,1.0000862112741444,-23.71537674563444
8.55772672,1.0000770709158373,-24.057795187268407
8.571936256,1.0000639583850852,-24.40010488626453
8.586145792,1.0000476827227283,-24.74222284188878
8.600354816,1.0000289530504147,-25.084145797750104
8.614564864,1.0000086216685513,-25.425831461689754
8.628774912,0.9999876047257359,-25.767277639752432
8.642983936,0.9999666673204614,-26.10849451324877
8.657193984,0.9999471248380469,-26.449462211366747
8.671403008,0.9999295000269176,-26.790206547057217
8.685613056,0.9999150215839343,-27.130770505813867
8.69982208,0.9999040868944277,-27.471212926664275
8.714032128,0.9998971049654365,-27.811524862451186
8.728241152,0.999894791325162,-28.151787974840403
8.7424512,0.9998970058890774,-28.492067823580246
8.756661248,0.9999035871160148,-28.832418024715167
8.770870272,0.9999145031805534,-29.172910478268886
8.78508032,0.9999290774037153,-29.51353500465315
8.799289344,0.9999467720867942,-29.854372165839493
8.813499392,0.9999666048289494,-30.195469808673536
8.827708416,0.9999878501557795,-30.536819565329946
8.841918464,1.0000095569662288,-30.87847939853867
8.856127488,1.000030604336948,-31.220391530969785
8.870337536,1.0000499819670345,-31.56257116812855
8.88454656,1.0000670398223643,-31.904990104630578
8.898756608,1.0000807143380641,-32.2475911448269
8.912966656,1.0000906548364472,-32.59038478791154
8.92717568,1.0000959616158227,-32.93326419165514
8.941385728,1.0000968843492817,-33.27620953871069
8.955594752,1.0000929685811437,-33.619165601391586
8.9698048,1.0000846395622958,-33.96202640496397
8.984013824,1.0000720504863232,-34.30480582584965
8.998223872,1.0000559401246054,-34.64741559478525
9.012432896,1.0000368958236756,-34.989816768414734
9.026642944,1.0000159285927916,-35.33199346974123
9.040852992,0.9999938459881594,-35.6739069789838
9.055062016,0.9999717311281737,-36.01558120151631
9.069272064,0.9999505522179182,-36.35698857773787
9.083481088,0.9999313463402063,-36.69813502562782
9.097691136,0.9999150145094822,-37.03913362629045
9.11190016,0.9999023437516401,-37.379909769956306
9.126110208,0.9998936773221342,-37.7205916821304
9.140319232,0.9998896985589572,-38.06121175853835
9.15452928,0.9998905723280233,-38.40181250839061
9.168739328,0.9998961462524663,-38.742455964650055
9.182948352,0.9999062963121198,-39.0832262264733
9.1971584,0.9999205280849752,-39.42414705734882
9.211367424,0.999938249458233,-39.7652835792733
9.225577472,0.9999586478699157,-40.10666902006994
9.239786496,0.9999806988614157,-40.44831734710349
9.253996544,1.000003493877971,-40.79025655035249
9.268205568,1.0000259449147542,-41.13249823466723
9.282415616,1.0000469646784182,-41.47501925562434
9.296625664,1.0000658080434266,-41.81782575741721
9.310834688,1.0000813577326582,-42.16081995255867
9.325044736,1.0000931714253496,-42.50401621892995
9.33925376,1.0001002408836868,-42.8473341233665
9.353463808,1.0001025829067072,-43.19075940457659
9.367672832,1.0001001238332843,-43.534178659275625
9.38188288,1.0000926692118035,-43.87756306593456
9.396091904,1.0000807432703964,-44.22081461064198
9.410301952,1.0000646872566152,-44.563933496897235
9.424512,1.0000454741548812,-44.90685911947852
9.438721024,1.000023880086375,-45.249519889796076
9.452931072,1.000000962179336,-45.5919419377613
9.467140096,0.9999774344052867,-45.934097081023005
9.481350144,0.9999547165693761,-46.27596243571452
9.495559168,0.9999337138414092,-46.61760332462809
9.509769216,0.9999154161265418,-46.95897008584713
9.52397824,0.9999008259446334,-47.30018077398784
9.538188288,0.9998903516737044,-47.641235251444854
9.552398336,0.9998845997846443,-47.98221200760057
9.56660736,0.9998839868851594,-48.32313618699603
9.580817408,0.9998883136002586,-48.664114508942525
9.595026432,0.9998976336776746,-49.00518289660538
9.60923648,0.9999114203434023,-49.346406440123765
9.623445504,0.9999289988360973,-49.68784693226811
9.637655552,0.9999497830245083,-50.02952557662985
9.651864576,0.9999726092287776,-50.37149425564739
9.666074624,0.9999965320247681,-50.713749535051534
9.680284672,1.0000205251746432,-51.0563383819693
9.694493696,1.0000433748962847,-51.39922550454846
9.708703744,1.0000640658220994,-51.74237833674095
9.722912768,1.0000816195921336,-52.08578974229924
9.737122816,1.000095322205179,-52.42942276371484
9.75133184,1.0001044213892982,-52.77321484943034
9.765541888,1.0001085300810317,-53.11709157271752
9.779750912,1.0001074458701082,-53.4610138438552
9.79396096,1.0001012256889799,-53.80490375750228
9.808171008,1.000090006725381,-54.14870918383378
9.822380032,1.000074372947389,-54.492363493016235
9.83659008,1.0000551216522584,-54.83580906593329
9.850799104,1.0000328599880093,-55.17903054354886
9.865009152,1.0000088738752544,-55.52197244090515
9.879218176,0.9999842660535927,-55.86464558579664
9.893428224,0.9999597965318555,-56.20700899489744
9.907637248,0.999936906664962,-56.54909619708724
9.921847296,0.999916607704914,-56.89095883532823
9.936057344,0.999899713676757,-57.23257815499535
9.950266368,0.9998872325476248,-57.5740306355894
9.964476416,0.9998795907126808,-57.91538947170964
9.97868544,0.9998771527462351,-58.25668381855625
9.992895488,0.999880123255763,-58.59800433041386
10.007104512,0.9998883985908877,-58.93938158117414
10.02131456,0.9999014755574096,-59.28093952211526
10.035523584,0.9999189289898571,-59.62266511572266
10.049733632,0.9999400442375612,-59.964662779232384
10.063942656,0.999963535008101,-60.30695492793042
10.078152704,0.9999887425377324,-60.64954457694674
10.092362752,1.0000142014820557,-60.99246277636887
10.106571776,1.0000388444064465,-61.33572358781453
10.120781824,1.0000615688188386,-61.679267672505446
10.134990848,1.0000814131305045,-62.0231139115721
10.149200896,1.0000972708329339,-62.36717396714872
10.16340992,1.0001084718723328,-62.71144239587054
10.177619968,1.000114553229004,-63.05581554795311
10.191828992,1.0001151254279537,-63.40025308789492
10.20603904,1.0001101898240383,-63.744683049986286
10.220249088,1.0000999310425682,-64.08904709030124
10.234458112,1.0000848223581773,-64.43327254911429
10.24866816,1.0000655355955692,-64.77729800927847
10.262877184,1.0000428429865378,-65.12107768475953
10.277087232,1.0000178967447215,-65.46458831531005
10.291296256,0.9999918195625185,-65.80779892752915
10.305506304,0.9999657142409654,-66.150702952814
10.319715328,0.9999408051833041,-66.49332703827096
10.333925376,0.9999183102602334,-66.83562882009184
10.348135424,0.9998992354825432,-67.17772259488996
10.362344448,0.9998844020572756,-67.51961037792854
10.376554496,0.9998745574706625,-67.86136688727599
10.39076352,0.9998702695918726,-68.20304072474534
10.404973568,0.9998716417968898,-68.54470364068773
10.419182592,0.9998786481380231,-68.88646031469382
10.43339264,0.9998909218385248,-69.22831942377869
10.447601664,0.9999080926794235,-69.57037930668594
10.461811712,0.9999292427487131,-69.91267193089172
10.47602176,0.9999535436479312,-70.25529925180604
10.490230784,0.9999798341017149,-70.59823009013465
10.504440832,1.0000068687037147,-70.94150941018955
10.518649856,1.0000334334581467,-71.28513912995496
10.532859904,1.0000584079849644,-71.6290959097952
10.547068928,1.000080461887996,-71.97334893790295
10.561278976,1.0000987755117308,-72.31789861963681
10.575488,1.000112386575277,-72.66263493474987
10.589698048,1.0001205988560544,-73.00754225657522
10.603908096,1.0001231000604611,-73.35253072296933
10.61811712,1.0001197233247217,-73.69753540997299
10.632327168,1.0001105831155024,-74.04247898789576
10.646536192,1.0000961458514268,-74.38730612737781
10.66074624,1.0000770012206517,-74.7319295454125
10.674955264,1.0000538803607346,-75.07631511841319
10.689165312,1.0000280567584046,-75.42041305996457
10.703374336,1.0000005691536134,-75.76420569047264
10.717584384,0.9999727047236243,-76.10769947574032
10.731794432,0.9999457098195023,-76.45083611076555
10.746003456,0.9999208165113947,-76.79367231351632
10.760213504,0.9998992595606142,-77.1362680341073
10.774422528,0.999881951859477,-77.47861321541278
10.788632576,0.9998698335948415,-77.82078512848761
10.8028416,0.9998632442292525,-78.16284949300653
10.817051648,0.9998627474589189,-78.50490170767326
10.831260672,0.999868178118449,-78.84697721086258
10.84547072,0.9998795467835965,-79.18920904526374
10.859680768,0.9998962146970324,-79.53159164716007
10.873889792,0.9999174402272646,-79.87423034912848
10.88809984,0.999942356057995,-80.21718738034026
10.902308864,0.9999697624851691,-80.56044142686375
10.916518912,0.9999983632824012,-80.90409054646388
10.930727936,1.0000270117526469,-81.24810428527495
10.944937984,1.000054276921507,-81.59246537495994
10.959147008,1.0000789096054397,-81.93717911600547
10.973357056,1.0000998666186334,-82.2821913164594
10.987567104,1.0001160288387867,-82.62744549295661
11.001776128,1.0001266482086941,-82.97289776251314
11.015986176,1.0001313603039115,-83.3184543374673
11.0301952,1.0001297859041982,-83.66403891398241
11.044405248,1.0001219979377638,-84.00960442153526
11.058614272,1.000108454051761,-84.35504123742416
11.07282432,1.0000895786847537,-84.70034035447678
11.087033344,1.0000661675150948,-85.0453612008117
11.101243392,1.0000395168017957,-85.3901149823656
11.11545344,1.0000106160548925,-85.7345271136156
11.129662464,0.9999809376721465,-86.07858950323441
11.143872512,0.9999517408806927,-86.42231837251157
11.158081536,0.9999242944503038,-86.7657238735612
11.172291584,0.9999000640195108,-87.10879759403473
11.186500608,0.9998800501574484,-87.45166120657653
11.200710656,0.9998651092196139,-87.7942804893692
11.21491968,0.9998561094913476,-88.13678323829566
11.229129728,0.9998534094874276,-88.47922393214962
11.243338752,0.9998571990856938,-88.82169132454032
11.2575488,0.9998672352736582,-89.1642467549669
11.271758848,0.9998832958478021,-89.50698471207505
11.285967872,0.9999044251294453,-89.8499599964926
11.30017792,0.999929869380736,-90.19323027091062
11.314386944,0.9999583073954555,-90.53688204189359
11.328596992,0.9999886583796209,-90.88087650546316
11.342806016,1.0000193309823386,-91.22529081257824
11.357016064,1.0000490662223265,-91.57008487346822
11.371225088,1.000076423281789,-91.9152459495059
11.385435136,1.0001001735283646,-92.26073464072921
11.399645184,1.0001191854889493,-92.60650833952717
11.413854208,1.0001326525922967,-92.95251128883963
11.428064256,1.0001398024637724,-93.29868915698766
11.44227328,1.0001403348728461,-93.64489904028027
11.456483328,1.0001341889388151,-93.99109955682457
11.470692352,1.0001217460575937,-94.33723756497837
11.4849024,1.0001032995223675,-94.68317360628338
11.499111424,1.0000799099391722,-95.02887888686992
11.513321472,1.0000524618535775,-95.37429781073723
11.52753152,1.0000221899004316,-95.7193829270586
11.541740544,0.999990446352179,-96.06409574997451
11.555950592,0.9999589212538929,-96.40845499099062
11.570159616,0.9999288558531526,-96.7524310308881
11.584369664,0.9999016054569495,-97.0960788907253
11.598578688,0.9998785291089163,-97.43944360800607
11.612788736,0.9998606865152272,-97.78256129553296
11.62699776,0.9998488959692391,-98.12550876168451
11.641207808,0.9998437315476124,-98.46837133723703
11.655417856,0.9998454331251282,-98.81120829814974
11.66962688,0.9998540431907333,-99.15414981569164
11.683836928,0.9998691507482994,-99.49723475323258
