freq,mag,phase
6.0,1.000170896414019,-87.15719612916386
6.002513408,1.0002487899903876,-87.29062567754102
6.005026816,1.0003115652867856,-87.4250434116212
6.007540224,1.0003545516854249,-87.56024329658786
6.010053632,1.000375148087348,-87.69591515226108
6.012566528,1.0003721356320114,-87.83174682841904
6.015079936,1.0003452904863537,-87.96737286640463
6.017593344,1.0002965164772593,-88.10245851476314
6.020106752,1.0002291724139039,-88.23674173291204
6.02262016,1.0001470745087746,-88.36991107280812
6.025133568,1.000055621263227,-88.5018644069004
6.027646976,0.9999605679327684,-88.63246135324214
6.030160384,0.9998677654525067,-88.76172294610105
6.032673792,0.9997832917456618,-88.88971534541668
6.035186688,0.9997123181554731,-89.01658261501773
6.037700096,0.9996594275688716,-89.14252789166716
6.040213504,0.9996278863109418,-89.26792067007457
6.042726912,0.9996198551917045,-89.39297049995369
6.04524032,0.9996356412364761,-89.51814911956424
6.047753728,0.9996742172764236,-89.64370933066674
6.050267136,0.9997335749616807,-89.77000888674907
6.052780544,0.9998095003358741,-89.89730101318476
6.055293952,0.9998975811493741,-90.02577020588335
6.057806848,0.999991886823914,-90.15562056400569
6.060320256,1.000086795950877,-90.28679387765419
6.062833664,1.0001760415488148,-90.41937162186476
6.065347072,1.0002542785732775,-90.55316101914934
6.06786048,1.000316242996954,-90.68793333501858
6.070373888,1.0003583297693979,-90.82356922696464
6.072887296,1.0003776339882304,-90.95955844939357
6.075400704,1.0003730808731575,-91.09577157078216
6.077914112,1.0003448451035486,-91.23165581738432
6.08042752,1.0002948418043411,-91.36705039988173
6.082940416,1.0002261075114915,-91.50156720533793
6.085453824,1.0001430222752492,-91.63500805143445
6.087967232,1.0000506003277487,-91.76719112528389
6.09048064,0.9999550341242658,-91.89805902348857
6.092994048,0.9998620703047674,-92.0275180305072
6.095507456,0.9997778929521608,-92.1557033900324
6.098020864,0.9997073183387194,-92.28280627997833
6.100534272,0.9996553168017089,-92.40902056969423
6.10304768,0.9996248856263998,-92.5346466786635
6.105560576,0.9996181267520604,-92.65999894553416
6.108073984,0.9996353181576009,-92.7854341819919
6.110587392,0.9996754320168514,-92.91132218911514
6.1131008,0.9997361109622063,-93.0379533749735
6.115614208,0.9998132643172033,-93.16556946202222
6.118127616,0.9999021967375525,-93.29442713802297
6.120641024,0.9999972544186204,-93.42462777521584
6.123154432,1.000092406459511,-93.55618658083733
6.12566784,1.0001818014500625,-93.68911831354728
6.128180736,1.0002594859718386,-93.82329867096914
6.130694144,1.000320851147638,-93.95844944126357
6.133207552,1.0003619065481975,-94.09439570777506
6.13572096,1.0003801423856171,-94.23079160962355
6.138234368,1.0003741505705193,-94.36722094899449
6.140747776,1.0003444590817998,-94.50350969701549
6.143261184,1.000293004422473,-94.63914799199415
6.145774592,1.000222939782633,-94.77394316254568
6.148288,1.0001386951032116,-94.90761583850575
6.150800896,1.0000455960556902,-95.04002886762476
6.153314304,0.9999494917625169,-95.1710838691056
6.155827712,0.9998565285065857,-95.30076080655749
6.15834112,0.999772214133766,-95.42915783225024
6.160854528,0.999702415225535,-95.55646579573039
6.163367936,0.9996511907439176,-95.68288314300409
6.165881344,0.9996219038830881,-95.80877029504317
6.168394752,0.999616432487214,-95.93436301508213
6.17090816,0.9996350648092858,-96.06008599399708
6.173421056,0.9996766896315665,-96.18625471760555
6.175934464,0.9997386151531262,-96.31317957234968
6.178447872,0.9998170939791469,-96.441129037159
6.18096128,0.9999069760997361,-96.57031069084782
6.183474688,1.0000026656083039,-96.70087597655655
6.185988096,1.0000981914149711,-96.83281599198908
6.188501504,1.0001874963157635,-96.96614067339168
6.191014912,1.0002648665007656,-97.10063289773652
6.19352832,1.0003254267259403,-97.23617440620697
6.196041216,1.000365466768693,-97.37242884443972
6.198554624,1.0003823862144956,-97.50915054091594
6.201068032,1.0003751880381726,-97.6459247022823
6.20358144,1.0003440185788803,-97.78244218695829
6.206094848,1.0002912635746606,-97.91834616175154
6.208608256,1.0002200056437622,-98.05336532476828
6.211121664,1.0001345223544276,-98.18726460095134
6.213635072,1.000040648310882,-98.31991212541404
6.21614848,0.9999439921139486,-98.45114000031008
6.218661888,0.9998507316472244,-98.58102598929895
6.221174784,0.9997668302954764,-98.70960431162251
6.223688192,0.9996975933028299,-98.837105674313
6.2262016,0.99964729034784,-98.96374108329536
6.228715008,0.9996190853926724,-99.08987351910743
6.231228416,0.9996149592997216,-99.21570379499748
6.233741824,0.9996349630783096,-99.34167443873551
6.236255232,0.9996778712871356,-99.46813945768874
6.23876864,0.9997413433307475,-99.59534345214269
6.241282048,0.9998208366770795,-99.72363205877342
6.243794944,0.9999117042350357,-99.85316052184936
6.246308352,1.0000080659611326,-99.98407047093102
6.24882176,1.0001040056695802,-100.11631204682305
6.251335168,1.000193203857524,-100.25000056039273
6.253848576,1.0002701189980365,-100.38482853239032
6.256361984,1.0003301006945526,-100.52072562177132
6.258875392,1.0003690902095863,-100.65732761753249
6.2613888,1.0003847500738194,-100.7943158167568
6.263902208,1.0003760880404418,-100.93135569755538
6.266415104,1.0003437108553046,-101.06817129040043
6.268928512,1.0002895160737153,-101.2043283686643
6.27144192,1.0002168120273816,-101.33958950098877
6.273955328,1.0001304004415605,-101.47368439405822
6.276468736,1.0000356312918166,-101.60648813341392
6.278982144,0.999938502219082,-101.7379224185505
6.281495552,0.9998452202133047,-101.86798243618716
6.28400896,0.999761329737746,-101.99674414619038
6.286522368,0.999692712863226,-102.12443219078769
6.289035264,0.9996431640381178,-102.251271154645
6.291548672,0.9996161781021438,-102.37753961574094
6.29406208,0.9996133501870866,-102.50361178837869
6.296575488,0.9996346655049173,-102.62985627679625
6.299088896,0.999679274938821,-102.75655514131932
6.301602304,0.999743988309117,-102.88408249158998
6.304115712,0.9998247122798557,-103.01266624940268
6.30662912,0.9999164638345692,-103.14248906796185
6.309142528,1.000013580390739,-103.27369741719646
6.311655424,1.0001097464902355,-103.4063217957158
6.314168832,1.0001989366192103,-103.54031754022844
6.31668224,1.0002754984028,-103.6754869504693
6.319195648,1.000334644557962,-103.81168710568636
6.321709056,1.0003726544000993,-103.9485759381132
6.324222464,1.000387124503291,-104.08587480281625
6.326735872,1.0003770272633825,-104.22322507764615
6.32924928,1.0003432079331656,-104.36023333033567
6.331762688,1.0002875298264258,-104.49663675296728
6.334276096,1.0002136133487203,-104.63208004320678
6.336788992,1.000126143196092,-104.76639622415728
6.3393024,1.0000305605491104,-104.8993983737741
6.341815808,0.9999330400009512,-105.0309802393941
6.344329216,0.9998394250751858,-105.1611875010281
6.346842624,0.9997560707870375,-105.29012927479019
6.349356032,0.9996878311487745,-105.41799394591703
6.35186944,0.9996392863817476,-105.54498123983056
6.354382848,0.99961339729297,-105.67145715077528
6.356896256,0.9996117839847684,-105.79774147538092
6.359409152,0.9996347900025744,-105.92417313300808
6.36192256,0.9996805947115096,-106.05114337953239
6.364435968,0.9997466425801051,-106.1788992298069
6.366949376,0.9998285493323613,-106.30774865956838
6.369462784,0.999921303095429,-106.43790634900672
6.371976192,1.0000189468460734,-106.56942446120424
6.3744896,1.000115442686557,-106.70238834808343
6.377003008,1.000204617806249,-106.83669298750598
6.379516416,1.0002807689491142,-106.97216407024264
6.382029312,1.0003392171451222,-107.10868702470663
6.38454272,1.000376190221219,-107.24586010630374
6.387056128,1.00038944656568,-107.38341615718976
6.389569536,1.0003778989441034,-107.52101217599603
6.392082944,1.0003425510185575,-107.65826480470253
6.394596352,1.0002855823136048,-107.79485509211631
6.39710976,1.0002104264248353,-107.93053898501284
6.399623168,1.0001218887222754,-108.06499909207412
6.402136576,1.0000254521129912,-108.1981297382732
6.404649472,0.9999274494825834,-108.32985250540987
6.40716288,0.9998337891106308,-108.4602410836698
6.409676288,0.9997505890582661,-108.58933526505307
6.412189696,0.999683008566114,-108.71732755480959
6.414703104,0.9996352875436783,-108.84449150019512
6.417216512,0.9996105953659427,-108.97114404237234
6.41972992,0.9996103834863606,-109.09762121961688
6.422243328,0.9996347095904353,-109.2242800286774
6.424756736,0.9996819553424701,-109.35145250164992
6.427269632,0.999749377740128,-109.47947530802398
6.42978304,0.9998325005823518,-109.60859229730667
6.432296448,0.9999261396544791,-109.73904126290397
6.434809856,1.000024522538266,-109.87081229618771
6.437323264,1.0001212315917676,-110.00406643062657
6.439836672,1.0002102046020034,-110.1386721034084
6.44235008,1.0002860950202799,-110.27446739952315
6.444863488,1.000343730809881,-110.4112655452985
6.447376896,1.000379817803512,-110.54872697329775
6.449889792,1.0003916826303543,-110.68653959083179
6.4524032,1.000378882765686,-110.82438148181728
6.454916608,1.000342082412385,-110.9618470100857
6.457430016,1.000283691319577,-111.09863819561292
6.459943424,1.0002072880903459,-111.2344467647169
6.462456832,1.0001176370147795,-111.36906840033738
6.46497024,1.0000204482744948,-111.5023638485238
6.467483648,0.9999219292088359,-111.63421927355013
6.469997056,0.9998283123252714,-111.76472612900005
6.472510464,0.9997451371850224,-111.89394477915504
6.47502336,0.999678250029843,-112.02204752524337
6.477536768,0.9996313871130517,-112.14939198913497
6.480050176,0.9996078861234631,-112.27617118151106
6.482563584,0.9996089011646856,-112.40281542991505
6.485076992,0.9996347179353335,-112.5296787243503
6.4875904,0.9996834510049716,-112.65706631864191
6.490103808,0.999752111956145,-112.78532129010993
6.492617216,0.9998365072496985,-112.91469622183445
6.495130624,0.9999310670910838,-113.04538561428127
6.49764352,1.0000300399981168,-113.1774972871284
6.500156928,1.0001270511618288,-113.31099617317356
6.502670336,1.0002160258092392,-113.44588219879427
6.505183744,1.0002913732570404,-113.58196593131635
6.507697152,1.0003482470292508,-113.71898388945446
6.51021056,1.0003831896375877,-113.85673435586358
6.512723968,1.0003937725622232,-113.99478506670152
6.515237376,1.000379636332142,-114.13282044233394
6.517750784,1.0003414228457108,-114.27048474960121
6.52026368,1.0002815926846502,-114.40744420534776
6.522777088,1.000203785605091,-114.54343629335403
6.525290496,1.0001131626124118,-114.67821149151072
6.527803904,1.0000152531528623,-114.81160050527953
6.530317312,0.9999163219509764,-114.94358953411736
6.53283072,0.9998225272749001,-115.07418874028264
6.535344128,0.9997397452823195,-115.20351468746826
6.537857536,0.9996733927637919,-115.33175066518439
6.540370944,0.9996275839563157,-115.45919501024893
6.54288384,0.9996051071158447,-115.58614579195292
6.545397248,0.999607549410923,-115.7129322948527
6.547910656,0.9996346912562379,-115.83996876189727
6.550424064,0.999684863348877,-115.96756926227702
6.552937472,0.9997549014513071,-116.09603870329016
6.55545088,0.9998403367172943,-116.22562647298156
6.557964288,0.9999358357929391,-116.35657170311619
6.560477696,1.0000354034978869,-116.48892826845247
6.562991104,1.0001326946854276,-116.62269670676696
6.565504,1.0002216297807713,-116.75782750285346
6.568017408,1.0002965134730488,-116.89418280373386
6.570530816,1.000352634877442,-117.03148558127401
6.573044224,1.000386470593273,-117.1694272723018
6.575557632,1.000395979569233,-117.30770792267528
6.57807104,1.0003803288720516,-117.4459528796259
6.580584448,1.0003406551921954,-117.5838118444362
6.583097856,1.0002793765387448,-117.72091850593468
6.585611264,1.000200452561022,-117.85704959980191
6.58812416,1.000108736599083,-117.99191249619105
6.590637568,1.0000100828005762,-118.1254254983257
6.593150976,0.9999106560405434,-118.25750920474988
6.595664384,0.9998167033470755,-118.38817697262662
6.598177792,0.9997343285363853,-118.51759508252793
6.6006912,0.9996685266018569,-118.64594286262079
6.603204608,0.9996236368594202,-118.7734889072983
6.605718016,0.9996023231054822,-118.90054042878761
6.608231424,0.9996061561662687,-119.02751781601057
6.610744832,0.9996347966620227,-119.15468673057333
6.613257728,0.9996864030334492,-119.28246245637594
6.615771136,0.9997576824863903,-119.41112773294364
6.618284544,0.9998444414507237,-119.54096812119361
6.620797952,0.9999408586081092,-119.67210965802944
6.62331136,1.000041002229198,-119.80470929737291
6.625824768,1.0001385121924806,-119.93871750759783
6.628338176,1.0002273224517169,-120.07413154656429
6.630851584,1.0003016976404433,-120.2107198420902
6.633364992,1.0003571259622839,-120.34823561964942
6.635877888,1.0003900064624518,-120.48639279470244
6.638391296,1.0003980402861572,-120.62489735729974
6.640904704,1.0003810453280075,-120.76329141704731
6.643418112,1.0003399947426974,-120.90130168216577
6.64593152,1.0002773153576063,-121.03855868347314
6.648444928,1.0001970742716115,-121.17478008223542
6.650958336,1.0001042829178552,-121.30977446358942
6.653471744,1.0000048345730796,-121.4433675662537
6.655985152,0.999904960920304,-121.57553329435338
6.658498048,0.9998110447278914,-121.70628893308715
6.661011456,0.9997288467487729,-121.83579134403531
6.663524864,0.9996637181117144,-121.96420605477799
6.666038272,0.9996197518085109,-122.09182280875822
6.66855168,0.9995996641186394,-122.21900500955512
6.671065088,0.9996048169048996,-122.34608916175536
6.673578496,0.9996348328173714,-122.47338331446208
6.676091904,0.9996879204312699,-122.6013181979816
6.678605312,0.9997606663085037,-122.73016828164187
6.681118208,0.9998484507010388,-122.86018680039258
6.683631616,0.9999457869538122,-122.991549014018
6.686145024,1.0000465345257343,-123.12437288558156
6.688658432,1.0001443428159886,-123.25865352854034
6.69117184,1.0002330738540572,-123.39424659327088
6.693685248,1.0003070111193042,-123.53106809947286
6.696198656,1.000361583937451,-123.66881677291533
6.698712064,1.0003932629334618,-123.80720152321092
6.701225472,1.0004001629893284,-123.94581459566261
6.703738368,1.0003817353359814,-124.08439273604392
6.706251776,1.0003392211540312,-124.2225725925802
6.708765184,1.0002751567129007,-124.35991620235501
6.711278592,1.0001936611699536,-124.49626678819597
6.713792,1.0000998480326895,-124.63133346749369
6.716305408,0.9999996286556264,-124.7650298645448
6.718818816,0.9998993279161434,-124.8972117771815
6.721332224,0.9998053303870844,-125.02801192574366
6.723845632,0.9997235219921481,-125.15757660135631
6.726358528,0.9996589683503766,-125.28604573445502
6.728871936,0.9996159195809036,-125.41375443030464
6.731385344,0.9995970438838008,-125.54101033399972
6.733898752,0.9996035979308129,-125.66816725773039
6.73641216,0.9996351376986001,-125.79562569615061
6.738925568,0.9996895405127477,-125.92370674024683
6.741438976,0.999763643457966,-126.05271035963321
6.743952384,0.9998525440951659,-126.18293675318016
6.746465792,0.9999508309738445,-126.31446617045309
6.7489792,1.0000521147550725,-126.447500051306
6.751492096,1.0001501700767206,-126.5819952854855
6.754005504,1.0002387843955938,-126.71778790969678
6.756518912,1.000312267676536,-126.85480490850205
6.75903232,1.0003659715901303,-126.9927558843468
6.761545728,1.0003965762370355,-127.13127639423264
6.764059136,1.0004022159776826,-127.27011810264872
6.766572544,1.0003823108016732,-127.40884667990889
6.769085952,1.000338379139918,-127.54710037999773
6.77159936,1.0002728764290976,-127.68460173493158
6.774112256,1.0001901254299932,-127.8210125614388
6.776625664,1.0000952952195952,-127.95612497872517
6.779139072,0.9999943696592714,-128.08982885675996
6.78165248,0.9998936689511946,-128.22208607922275
6.784165888,0.9997995745988676,-128.35294795115766
6.786679296,0.9997179923686755,-128.48249330297185
6.789192704,0.9996542245065304,-128.61102735791033
6.791706112,0.9996121219259414,-128.73877283660858
6.79421952,0.9995944000144733,-128.86612318412642
6.796732416,0.9996023071915281,-128.99335686121563
6.799245824,0.9996353069995666,-129.12092061549225
6.801759232,0.9996912530779998,-129.24913271435875
6.80427264,0.9997666732536716,-129.3782754952079
6.806786048,0.9998568042894387,-129.50864739047924
6.809299456,0.9999558793598544,-129.64039065696608
6.811812864,1.000057798339123,-129.77360981132918
6.814326272,1.0001561627837723,-129.9082630924631
6.81683968,1.0002445913714584,-130.0442978303915
6.819352576,1.0003174901118248,-130.18147013759852
6.821865984,1.0003705145453732,-130.31958421130858
6.824379392,1.000399980148252,-130.45828290969305
6.8268928,1.0004043463807486,-130.59723797456277
6.829406208,1.0003830363784751,-130.73608529234818
6.831919616,1.0003375906599203,-130.87447490039753
6.834433024,1.000270669064267,-131.01202427877632
6.836946432,1.0001866314086447,-131.1485012324505
6.83945984,1.0000908411878313,-131.28364581418165
6.841972736,0.9999890664204713,-131.41740463136574
6.844486144,0.9998879446293409,-131.5496902313288
6.846999552,0.9997938551089055,-131.68052928891333
6.84951296,0.9997126287032726,-131.81012481863675
6.852026368,0.9996494213584607,-131.93866748421578
6.854539776,0.9996083152736539,-132.06644860087908
6.857053184,0.9995918052755602,-132.19384241683008
6.859566592,0.9996011208292089,-132.3211386181211
6.86208,0.9996355895863486,-132.44879781681763
6.864592896,0.9996929570924953,-132.577122118249
6.867106304,0.9997696830543813,-132.7063922434274
6.869619712,0.9998609997357614,-132.83690231737904
6.87213312,0.9999610080684954,-132.96881104477131
6.874646528,1.000063512020224,-133.1021852906825
6.877159936,1.0001619923642693,-133.23701489532354
6.879673344,1.0002503128569447,-133.37320212650857
6.882186752,1.0003228223910632,-133.5105737980562
6.88470016,1.0003748657968865,-133.64882860859996
6.887213568,1.0004032850457556,-133.78770131011677
6.889726464,1.0004062807102054,-133.92676107338534
6.892239872,1.000383539765958,-134.06572446148073
6.89475328,1.0003365481113855,-134.20416239562164
6.897266688,1.000268296685898,-134.34176176706447
6.899780096,1.0001830150557367,-134.4783024632044
6.902293504,1.000086126743384,-134.6134923017874
6.904806912,0.9999836262078099,-134.74721719650017
6.90732032,0.9998821597882562,-134.87950468737037
6.909833728,0.9997880006330749,-135.0103763376072
6.912346624,0.9997071357611339,-135.13993501660613
6.914860032,0.9996446180972548,-135.26849099146585
6.91737344,0.9996045315855716,-135.3962896643897
6.919886848,0.9995893755258669,-135.52369852326024
6.922400256,0.9995999749250281,-135.651063235085
6.924913664,0.9996358754882183,-135.7787928939889
6.927427072,0.9996947168475439,-135.90718255374807
6.92994048,0.9997728203882273,-136.0366094764605
6.932453888,0.999865259762526,-136.16721016306903
6.934966784,0.9999662155949121,-136.29925760640066
6.937480192,1.0000693405310177,-136.43277491667948
6.9399936,1.0001679949411186,-136.56778181443804
6.942507008,1.0002561542827961,-136.70409532688092
6.945020416,1.0003280695163421,-136.84162717058518
6.947533824,1.000379325415512,-136.98000955079524
6.950047232,1.0004066305648809,-137.11901493513378
6.95256064,1.0004083211768353,-137.2582038408581
6.955074048,1.0003841569135394,-137.39722600575854
6.957586944,1.0003356495753972,-137.5357290895141
6.960100352,1.0002660102495002,-137.6733961651982
6.96261376,1.0001794315441455,-137.80993443656638
6.965127168,1.0000814780953866,-137.9451265982003
6.967640576,0.999978337647613,-138.07886858721653
6.970153984,0.9998763790585216,-138.21108127733663
6.972667392,0.999782176203554,-138.34193540906801
6.9751808,0.9997016804853195,-138.47150138565658
6.977694208,0.9996399136704127,-138.60002668961218
6.980207104,0.9996008369354564,-138.72782825004646
6.982720512,0.9995868195818336,-138.85526133203965
6.98523392,0.9995988672467643,-138.9826590842137
6.987747328,0.9996362338942881,-139.11043180162855
6.990260736,0.9996965677500671,-139.23890753276558
6.992774144,0.9997760312138062,-139.36837124359508
6.995287552,0.9998695725926213,-139.49911539100228
6.99780096,0.9999714123677507,-139.63124466003788
