freq,mag,phase
6.0,0.99999300106843,149.22466384048406
6.008,0.999993124945971,149.18224768053878
6.016,0.9999932470292108,149.1398257310359
6.024,0.9999933673364008,149.09739798346226
6.032,0.9999934858856955,149.05496442930058
6.04,0.9999936026951519,149.01252506002947
6.048,0.99999371778273,148.97007986712336
6.056,0.999993831166292,148.92762884205266
6.064,0.9999939428636035,148.88517197628354
6.072,0.9999940528923338,148.84270926127806
6.08,0.9999941612700545,148.8002406884941
6.088,0.9999942680142412,148.75776624938536
6.096,0.9999943731422728,148.71528593540134
6.104,0.9999944766714324,148.67279973798742
6.112,0.9999945786189062,148.63030764858468
6.12,0.9999946790017848,148.58780965862996
6.128,0.9999947778370631,148.54530575955596
6.136,0.9999948751416391,148.5027959427911
6.144,0.9999949709323164,148.4602801997595
6.152,0.9999950652258027,148.41775852188104
6.16,0.9999951580387095,148.37523090057132
6.168,0.9999952493875542,148.33269732724165
6.176,0.9999953392887585,148.29015779329902
6.184,0.9999954277586485,148.2476122901461
6.192,0.9999955148134566,148.20506080918116
6.2,0.9999956004693192,148.16250334179827
6.208,0.999995684742279,148.119939879387
6.216,0.9999957676482837,148.07737041333255
6.224,0.9999958492031863,148.03479493501578
6.232,0.9999959294227462,147.99221343581314
6.24,0.999996008322628,147.9496259070966
6.248,0.9999960859184027,147.90703234023377
6.256,0.9999961622255473,147.86443272658767
6.264,0.9999962372594446,147.82182705751703
6.272,0.9999963110353841,147.77921532437594
6.28,0.9999963835685616,147.73659751851403
6.288,0.9999964548740792,147.69397363127644
6.296,0.9999965249669458,147.6513436540037
6.304,0.9999965938620774,147.6087075780319
6.312,0.9999966615742963,147.56606539469243
6.32,0.9999967281183326,147.52341709531214
6.328,0.9999967935088221,147.4807626712133
6.336,0.9999968577603091,147.43810211371348
6.344,0.9999969208872448,147.39543541412564
6.352,0.9999969829039876,147.3527625637581
6.36,0.9999970438248036,147.31008355391438
6.368,0.9999971036638662,147.2673983758934
6.376,0.9999971624352576,147.22470702098937
6.384,0.9999972201529659,147.18200948049156
6.392,0.999997276830889,147.13930574568474
6.4,0.9999973324828316,147.09659580784864
6.408,0.9999973871225075,147.05387965825838
6.416,0.9999974407635377,147.01115728818402
6.424,0.9999974934194522,146.96842868889095
6.432,0.9999975451036889,146.92569385163955
6.44,0.9999975958295945,146.88295276768542
6.448,0.9999976456104241,146.84020542827906
6.456,0.9999976944593417,146.79745182466618
6.464,0.9999977423894196,146.75469194808738
6.472,0.9999977894136391,146.7119257897783
6.48,0.999997835544891,146.66915334096956
6.4879999999999995,0.9999978807959736,146.62637459288672
6.496,0.9999979251795958,146.58358953675022
6.504,0.9999979687083745,146.54079816377543
6.5120000000000005,0.9999980113948369,146.49800046517254
6.52,0.999998053251418,146.4551964321466
6.5280000000000005,0.9999980942904633,146.41238605589743
6.536,0.9999981345242268,146.36956932761967
6.5440000000000005,0.9999981739648728,146.3267462385027
6.552,0.9999982126244746,146.2839167797305
6.5600000000000005,0.9999982505150149,146.2410809424819
6.568,0.9999982876483865,146.19823871793028
6.5760000000000005,0.999998324036391,146.1553900972437
6.584,0.9999983596907407,146.1125350715847
6.592,0.9999983946230568,146.0696736321105
6.6,0.9999984288448707,146.02680576997275
6.608,0.9999984623676235,145.98393147631765
6.616,0.9999984952026664,145.94105074228582
6.624,0.9999985273612595,145.89816355901232
6.632,0.9999985588545741,145.85526991762657
6.64,0.9999985896936906,145.81236980925232
6.648,0.9999986198895991,145.76946322500763
6.656,0.9999986494532006,145.72655015600486
6.664,0.9999986783953049,145.6836305933506
6.672,0.9999987067266325,145.64070452814562
6.68,0.9999987344578137,145.59777195148482
6.688,0.9999987615993885,145.5548328544572
6.696,0.9999987881618073,145.51188722814592
6.704,0.9999988141554296,145.4689350636281
6.712,0.9999988395905259,145.4259763519748
6.72,0.9999988644772752,145.3830110842511
6.728,0.999998888825768,145.34003925151598
6.736,0.9999989126460029,145.29706084482217
6.744,0.9999989359478897,145.25407585521629
6.752,0.9999989587412471,145.21108427373875
6.76,0.9999989810358036,145.16808609142356
6.768,0.9999990028411975,145.12508129929847
6.776,0.9999990241669761,145.0820698883848
6.784,0.9999990450225971,145.03905184969753
6.792,0.9999990654174271,144.99602717424494
6.8,0.9999990853607419,144.95299585302902
6.808,0.9999991048617266,144.90995787704495
6.816,0.9999991239294754,144.86691323728138
6.824,0.999999142572992,144.82386192472026
6.832,0.9999991608011881,144.7808039303367
6.84,0.9999991786228852,144.73773924509902
6.848,0.9999991960468129,144.69466785996863
6.856,0.999999213081609,144.65158976590016
6.864,0.9999992297358207,144.608504953841
6.872,0.9999992460179021,144.56541341473164
6.88,0.9999992619362167,144.52231513950537
6.888,0.999999277499035,144.47921011908835
6.896,0.9999992927145354,144.43609834439945
6.904,0.9999993075908041,144.3929798063502
6.912,0.9999993221358345,144.34985449584477
6.92,0.9999993363575266,144.30672240377987
6.928,0.9999993502636879,144.2635835210446
6.936,0.9999993638620327,144.2204378385206
6.944,0.9999993771601807,144.17728534708172
6.952,0.9999993901656592,144.13412603759411
6.96,0.9999994028858997,144.090959900916
6.968,0.9999994153282408,144.04778692789785
6.976,0.9999994274999254,144.00460710938202
6.984,0.9999994394081019,143.96142043620287
6.992,0.9999994510598231,143.91822689918652
7.0,0.9999994624620464,143.87502648915103
7.008,0.9999994736216327,143.83181919690594
7.016,0.9999994845453469,143.78860501325244
7.024,0.999999495239857,143.74538392898327
7.032,0.9999995057117338,143.70215593488254
7.04,0.9999995159674508,143.65892102172566
7.048,0.9999995260133832,143.6156791802793
7.056,0.9999995358558076,143.5724304013012
7.064,0.9999995455009014,143.52917467554022
7.072,0.9999995549547438,143.48591199373595
7.08,0.9999995642233129,143.442642346619
7.088,0.9999995733124865,143.39936572491058
7.096,0.9999995822280418,143.3560821193225
7.104,0.999999590975654,143.31279152055717
7.112,0.9999995995608967,143.26949391930722
7.12,0.9999996079892399,143.22618930625566
7.128,0.9999996162660509,143.18287767207562
7.136,0.9999996243965927,143.13955900743022
7.144,0.9999996323860234,143.09623330297254
7.152,0.9999996402393959,143.05290054934542
7.16,0.9999996479616566,143.00956073718137
7.168,0.9999996555576448,142.96621385710242
7.176,0.9999996630320928,142.92285989971995
7.184,0.9999996703896229,142.87949885563467
7.192,0.99999967763475,142.8361307154363
7.2,0.9999996847718766,142.79275546970365
7.208,0.9999996918052949,142.7493731090043
7.216,0.999999698739185,142.7059836238945
7.224,0.9999997055776138,142.6625870049191
7.232,0.9999997123245334,142.61918324261117
7.24,0.9999997189837816,142.57577232749222
7.248,0.9999997255590787,142.53235425007165
7.256,0.9999997320540285,142.4889290008468
7.264,0.9999997384721155,142.44549657030274
7.272,0.9999997448167048,142.40205694891208
7.28,0.9999997510910397,142.35861012713482
7.288,0.9999997572982414,142.31515609541808
7.296,0.9999997634413074,142.2716948441961
7.304,0.9999997695231095,142.22822636388986
7.312,0.9999997755463939,142.18475064490696
7.32,0.9999997815137771,142.1412676776415
7.328,0.9999997874277466,142.09777745247376
7.336,0.9999997932906594,142.05427995976999
7.344,0.9999997991047377,142.01077518988234
7.352,0.9999998048720697,141.96726313314846
7.36,0.9999998105946081,141.92374377989145
7.368,0.9999998162741657,141.8802171204195
7.376,0.9999998219124157,141.83668314502575
7.384,0.9999998275108882,141.79314184398788
7.392,0.9999998330709704,141.74959320756824
7.4,0.9999998385939017,141.70603722601314
7.4079999999999995,0.9999998440807729,141.66247388955293
7.416,0.9999998495325243,141.61890318840153
7.4239999999999995,0.9999998549499421,141.57532511275636
7.432,0.9999998603336576,141.5317396527979
7.4399999999999995,0.9999998656841427,141.4881467986895
7.448,0.9999998710017088,141.44454654057705
7.4559999999999995,0.9999998762865032,141.40093886858864
7.464,0.9999998815385069,141.3573237728344
7.4719999999999995,0.9999998867575314,141.31370124340611
7.48,0.999999891943215,141.27007127037677
7.4879999999999995,0.9999998970950212,141.22643384380055
7.496,0.999999902212234,141.18278895371216
7.504,0.9999999072939544,141.1391365901267
7.5120000000000005,0.9999999123390991,141.0954767430392
7.52,0.9999999173463937,141.05180940242442
7.5280000000000005,0.9999999223143717,141.00813455823624
7.536,0.9999999272413687,140.96445220040755
7.5440000000000005,0.9999999321255197,140.92076231884963
7.552,0.9999999369647535,140.87706490345187
7.5600000000000005,0.9999999417567902,140.83335994408145
7.568,0.9999999464991346,140.78964743058265
7.5760000000000005,0.9999999511890737,140.7459273527768
7.584,0.9999999558236695,140.70219970046145
7.5920000000000005,0.9999999603997568,140.65846446341018
7.6,0.9999999649139348,140.61472163137213
7.6080000000000005,0.9999999693625645,140.57097119407135
7.616,0.9999999737417612,140.52721314120646
7.6240000000000006,0.9999999780473902,140.48344746245013
7.632,0.9999999822750589,140.43967414744853
7.640000000000001,0.9999999864201126,140.39589318582085
7.648,0.9999999904776266,140.35210456715868
7.656000000000001,0.9999999944423995,140.30830828102555
7.664,0.9999999983089476,140.26450431695633
7.672,1.0,140.2206926644566
7.68,1.0,140.17687331300206
7.688,1.0,140.133046252038
7.696,1.0,140.08921147097854
7.704,1.0,140.04536895920603
7.712,0.9999999999999999,140.00151870607047
7.72,1.0,139.95766070088862
7.728,1.0,139.91379493294355
7.736,1.0,139.86992139148364
7.744,1.0,139.826040065722
7.752,1.0,139.78215094483573
7.76,1.0,139.73825401796503
7.768,1.0,139.69434927421239
7.776,1.0,139.6504367026419
7.784,1.0,139.6065162922782
7.792,1.0,139.56258803210562
7.8,1.0,139.51865191106748
7.808,1.0,139.47470791806492
7.816,0.9999999999999999,139.4307560419561
7.824,1.0,139.38679627155506
7.832,0.9999999999999999,139.34282859563078
7.84,1.0,139.29885300290624
7.848,0.9999999999999999,139.2548694820572
7.856,0.9999999999999999,139.21087802171107
7.864,1.0,139.16687861044588
7.872,1.0,139.12287123678917
7.88,1.0,139.07885588921647
7.888,1.0000000000000002,139.03483255615043
7.896,0.9999999999999999,138.99080122595936
7.904,0.9999999999999999,138.94676188695584
7.912,0.9999999999999999,138.90271452739555
7.92,1.0,138.8586591354757
7.928,0.9999999999999999,138.81459569933375
7.936,1.0,138.77052420704575
7.944,1.0,138.72644464662505
7.952,0.9999999963966936,138.68235700602054
7.96,0.9999999892791032,138.63826127311503
7.968,0.9999999815372737,138.5941574357238
7.976,0.9999999731446884,138.55004548159255
7.984,0.9999999640738483,138.505925398396
7.992,0.9999999542962368,138.46179717373576
8.0,0.9999999437822791,138.41766079513872
8.008,0.999999932501304,138.37351625005493
8.016,0.9999999204215007,138.32936352585563
8.024000000000001,0.9999999075098746,138.2852026098314
8.032,0.9999998937322024,138.24103348918976
8.04,0.999999879052983,138.19685615105325
8.048,0.9999998634353869,138.15267058245706
8.056000000000001,0.9999998468412044,138.1084767703468
8.064,0.9999998292307891,138.06427470157612
8.072,0.9999998105630011,138.02006436290415
8.08,0.9999997907951458,137.97584574099315
8.088000000000001,0.9999997698829103,137.93161882240594
8.096,0.9999997477802968,137.88738359360303
8.104,0.999999724439553,137.8431400409401
8.112,0.9999996998110988,137.79888815066505
8.120000000000001,0.9999996738434496,137.75462790891518
8.128,0.9999996464831348,137.71035930171416
8.136,0.9999996176746145,137.66608231496892
8.144,0.99999958736019,137.62179693446657
8.152000000000001,0.9999995554799114,137.5775031458711
8.16,0.9999995219714778,137.5332009347201
8.168,0.9999994867701367,137.48889028642114
8.176,0.9999994498085749,137.44457118624857
8.184000000000001,0.999999411016805,137.40024361933953
8.192,0.9999993703220458,137.35590757069056
8.2,0.9999993276485973,137.3115630251535
8.208,0.9999992829177089,137.2672099674318
8.216000000000001,0.9999992360474388,137.22284838207625
8.224,0.9999991869525096,137.17847825348116
8.232,0.9999991355441542,137.13409956587986
8.24,0.999999081729952,137.08971230334058
8.248000000000001,0.9999990254136607,137.04531644976188
8.256,0.9999989664950341,137.0009119888683
8.264,0.999998904869634,136.9564989042055
8.272,0.9999988404286299,136.9120771791358
8.280000000000001,0.9999987730585883,136.86764679683316
8.288,0.9999987026412503,136.82320774027852
8.296,0.9999986290532975,136.77875999225455
8.304,0.9999985521661034,136.7343035353408
8.312,0.9999984718454745,136.68983835190855
8.32,0.9999983879513713,136.64536442411546
8.328,0.9999983003376193,136.60088173390054
8.336,0.9999982088515995,136.55639026297865
8.344,0.9999981133339253,136.51188999283545
8.352,0.9999980136180956,136.4673809047218
8.36,0.9999979095301326,136.42286297964853
8.368,0.999997800888197,136.37833619838116
8.376,0.9999976875021802,136.3338005414346
8.384,0.9999975691732753,136.2892559890679
8.392,0.9999974456935176,136.24470252127927
8.4,0.9999973168453042,136.200140117801
8.408,0.9999971824008829,136.15556875809463
8.416,0.9999970421218063,136.11098842134652
8.424,0.9999968957583625,136.0663990864634
8.432,0.9999967430489619,136.02180073206827
8.44,0.9999965837194933,135.977193336497
8.448,0.9999964174826386,135.93257687779493
8.456,0.9999962440371474,135.88795133371423
8.464,0.9999960630670642,135.84331668171194
8.472,0.9999958742409119,135.79867289894852
8.48,0.9999956772108224,135.75401996228743
8.488,0.9999954716116148,135.7093578482954
8.496,0.9999952570598163,135.66468653324415
8.504,0.9999950331526216,135.62000599311293
8.512,0.9999947994667882,135.5753162035929
8.52,0.9999945555574629,135.53061714009277
8.528,0.9999943009569329,135.4859087777466
8.536,0.9999940351733023,135.44119109142358
8.544,0.999993757689081,135.3964640557398
8.552,0.999993467959689,135.35172764507368
8.56,0.9999931654118628,135.3069818335832
8.568,0.9999928494419644,135.2622265952277
8.576,0.9999925194141835,135.21746190379272
8.584,0.9999921746586254,135.17268773291974
8.592,0.9999918144692812,135.12790405614047
8.6,0.9999914381018676,135.08311084691715
8.608,0.9999910447715372,135.0383080786885
8.616,0.9999906336504429,134.993495724923
8.624,0.9999902038651535,134.94867375918037
8.632,0.9999897544939108,134.90384215518114
8.64,0.9999892845637212,134.85900088688666
8.648,0.9999887930472726,134.8141499285904
8.656,0.9999882788596669,134.76928925502114
8.664,0.9999877408549628,134.72441884146082
8.672,0.9999871778225209,134.67953866387754
8.68,0.9999865884831407,134.63464869907662
8.688,0.9999859714849881,134.5897489248709
8.696,0.9999853253993037,134.54483932027347
8.704,0.9999846487158909,134.49991986571465
8.712,0.9999839398383803,134.45499054328684
8.72,0.999983197079273,134.41005133701995
8.728,0.9999824186547622,134.36510223319112
8.736,0.9999816026793498,134.32014322067297
8.744,0.9999807471602533,134.27517429132448
8.752,0.9999798499916426,134.2301954404292
8.76,0.9999789089487144,134.1852066671871
8.768,0.9999779216816485,134.1402079752642
8.776,0.9999768857094847,134.09519937340878
8.784,0.9999757984139821,134.05018087613877
8.792,0.999974657033531,134.00515250451025
8.8,0.9999734586572117,133.9601142869738
8.808,0.9999722002191039,133.9150662603285
8.815999999999999,0.9999708784930009,133.87000847078323
8.824,0.9999694900876758,133.8249409751351
8.832,0.9999680314429318,133.77986384207637
8.84,0.999966498826647,133.7347771536405
8.847999999999999,0.9999648883331472,133.68968100679942
8.856,0.9999631958832166,133.6445755152232
8.864,0.9999614172261949,133.59946081121328
8.872,0.99995954794463,133.5543370478203
8.879999999999999,0.999957583462047,133.50920440115516
8.888,0.9999555190545293,133.46406307290138
8.896,0.9999533498668406,133.41891329303212
8.904,0.9999510709339904,133.37375532273336
8.911999999999999,0.9999486772092441,133.32858945752716
8.92,0.9999461635996829,133.28341603058274
8.928,0.9999435250106219,133.23823541619404
8.936,0.9999407564002271,133.19304803338963
8.943999999999999,0.9999378528458714,133.14785434962621
8.952,0.9999348096238592,133.10265488449983
8.96,0.9999316223041649,133.05745021338527
8.968,0.9999282868619354,133.01224097088928
8.975999999999999,0.9999247998073864,132.96702785397187
8.984,0.9999211583356011,132.92181162455606
8.992,0.9999173604974848,132.87659311140615
9.0,0.9999134053926098,132.83137321101503
9.008,0.9999092933841314,132.78615288719342
9.016,0.9999050263349516,132.7409331690149
9.024000000000001,0.9999006078631755,132.69571514672825
9.032,0.999896043613355,132.65049996521853
9.04,0.9998913415381667,132.60528881458154
9.048,0.9998865121829412,132.56008291738152
9.056000000000001,0.999881568963012,132.51488351219425
9.064,0.9998765284210959,132.4696918331135
9.072,0.999871410449234,132.42450908501766
9.08,0.9998662384571844,132.37933641456937
9.088000000000001,0.9998610394671377,132.334174877159
9.096,0.999855844113328,132.2890254002954
9.104,0.9998506865252074,132.24388874429806
9.112,0.9998456040745289,132.19876546152645
9.120000000000001,0.9998406369705667,132.15365585577317
9.128,0.999835827693805,132.10855994381092
9.136,0.9998312202669427,132.06347742136646
9.144,0.9998268593726743,132.0184076359538
9.152000000000001,0.9998227893397548,131.9733495689771
9.16,0.9998190530314095,131.92830182928046
9.168,0.9998156906818808,131.88326265985026
9.176,0.9998127387363942,131.838229958681
9.184000000000001,0.9998102287555738,131.79320131393646
9.192,0.9998081864462723,131.7481740525485
9.2,0.999806630876216,131.7031453003984
9.208,0.9998055739198314,131.65811205132172
9.216000000000001,0.99980501996795,131.6130712414924
9.224,0.9998049659161486,131.56801982533244
9.232,0.9998054014273831,131.52295484903712
9.24,0.9998063094461375,131.47787351807926
9.248000000000001,0.9998076669257501,131.43277325563295
9.256,0.9998094457191573,131.38765174965363
9.264,0.9998116135769942,131.3425069872683
9.272,0.9998141351957827,131.29733727605952
9.280000000000001,0.9998169732624905,131.2521412526817
9.288,0.9998200894488745,131.20691787995156
9.296,0.9998234453186469,131.16166643406498
9.304,0.9998270031211839,131.1163864838995
9.312000000000001,0.9998307264561637,131.07107786447014
9.32,0.9998345808032606,131.0257406465579
9.328,0.9998385339190909,130.9803751043482
9.336,0.9998425561099805,130.93498168266132
9.344,0.9998466203933545,130.88956096505126
9.352,0.9998507025632271,130.84411364374293
9.36,0.9998547811762392,130.79864049208174
9.368,0.9998588374746099,130.75314233990795
9.376,0.9998628552613114,130.70762005205086
9.384,0.999866820741255,130.6620745099632
9.392,0.9998707223403785,130.61650659638553
9.4,0.9998745505125647,130.57091718284093
9.408,0.9998782975423798,130.52530711970118
9.416,0.9998819573498663,130.4796772285374
9.424,0.9998855253020036,130.4340282964577
9.432,0.9998889980341304,130.3883610721411
9.44,0.9998923732834706,130.3426762632927
9.448,0.9998956497360119,130.2969745352696
9.456,0.999898826887282,130.25125651065156
9.464,0.999901904917013,130.20552276956
9.472,0.9999048845773111,130.15977385055538
9.48,0.9999077670936765,130.1140102519687
9.488,0.9999105540780238,130.06823243354685
9.496,0.9999132474527829,130.02244081831333
9.504,0.9999158493850798,129.9766357945631
9.512,0.9999183622300307,129.93081771792853
9.52,0.9999207884821776,129.88498691346467
9.528,0.9999231307341644,129.83914367771612
9.536,0.999925391641796,129.79328828073548
9.544,0.9999275738947018,129.74742096803234
9.552,0.999929680191887,129.70154196243737
9.56,0.9999317132215291,129.65565146587224
9.568,0.9999336756444422,129.60974966101858
9.576,0.9999355700806988,129.56383671288464
9.584,0.9999373990989534,129.51791277026786
9.592,0.9999391652080739,129.47197796711617
9.6,0.999940870850731,129.42603242379033
9.608,0.9999425183986391,129.38007624823146
9.616,0.9999441101491948,129.33410953703793
9.624,0.9999456483232765,129.2881323764571
9.632,0.9999471350640107,129.24214484329673
9.64,0.9999485724363439,129.19614700576082
