freq,mag,phase
6.0,0.999020528503406,-13.365684981603717
6.013310976,0.9988582869046864,-13.79681372316959
6.026622464,0.9987470649083176,-14.226301011159855
6.03993344,0.9986928719857342,-14.65493529803655
6.053244416,0.9986982438212776,-15.083268909196041
6.066555904,0.9987628991391537,-15.512201820202758
6.07986688,0.9988842478416073,-15.942333956996617
6.093177856,0.9990564189882618,-16.374376399970334
6.106489344,0.9992717643773099,-16.808921283558174
6.11980032,0.9995206325677601,-17.24644157185242
6.133111296,0.9997913184110068,-17.687256055647243
6.146422784,1.0000718321334505,-18.131555183415784
6.15973376,1.000349083592145,-18.579418229517827
6.173044736,1.000610407621147,-19.030685491053656
6.186356224,1.0008440674303172,-19.48509832531347
6.1996672,1.0010391759147312,-19.942257522872424
6.212978176,1.001186871172887,-20.401672507603624
6.226289664,1.0012803308174019,-20.862636001263418
6.23960064,1.001315270845,-21.32454105835053
6.252911616,1.0012900758645629,-21.786571677322062
6.266223104,1.0012057785257045,-22.248092622215047
6.27953408,1.001065835588921,-22.70833827358491
6.292845056,1.000877096595984,-23.16668645409923
6.306156544,1.0006476349975357,-23.622582154336623
6.31946752,1.0003882451688968,-24.075568449416714
6.332778496,1.0001105238860133,-24.52535860865956
6.346089984,0.9998270718774573,-24.971819299901913
6.35940096,0.9995509187283669,-25.414957246831243
6.372711936,0.9992948070747142,-25.854884597269166
6.386023424,0.999070406756034,-26.291951339200434
6.3993344,0.9988878042869168,-26.72658783757108
6.412645376,0.9987557775308645,-27.15940798155511
6.425956864,0.9986804029264605,-27.59105329482224
6.43926784,0.9986651212184438,-28.02221109667005
6.452578816,0.9987105053559444,-28.4536712139399
6.465890304,0.9988150191960858,-28.886156038125954
6.47920128,0.9989735039499221,-29.32038431411773
6.492512256,0.9991790412917134,-29.756907793143945
6.505823744,0.9994222216157107,-30.196373484890174
6.51913472,0.9996918132397921,-30.63905817305389
6.532445696,0.9999757490024566,-31.085275506464047
6.545757184,1.0002608687207213,-31.53512377787231
6.55906816,1.0005343054184885,-31.98848867727042
6.572379136,1.0007834522871712,-32.445200802045306
6.585690624,1.0009968768510764,-32.904882014120915
6.5990016,1.001164983966378,-33.3670021325752
6.612312576,1.0012799674990416,-33.8309910628415
6.625624064,1.0013363325205726,-34.29614216307646
6.63893504,1.0013317348739004,-34.76176802103887
6.652246016,1.0012660368962933,-35.227067869844
6.665557504,1.0011423776764754,-35.6913303243207
6.67886848,1.0009662008207645,-36.153866775671226
6.692179456,1.0007454971455245,-36.614068119566994
6.705490944,1.0004901125973316,-37.07151658895942
6.71880192,1.0002118359840708,-37.52576421160833
6.732112896,0.999923364842895,-37.9766860538158
6.745424384,0.9996375584751449,-38.424122013904025
6.75873536,0.9993678110902855,-38.86825828785294
6.772046336,0.9991263342010944,-39.30941415032104
6.785357824,0.9989243771355736,-39.74786134383504
6.7986688,0.9987709224181845,-40.18426444663428
6.811980288,0.9986732188452109,-40.619200009369564
6.825291264,0.9986361535628142,-41.05342489156541
6.83860224,0.9986610705581087,-41.48767818834201
6.851913728,0.9987470546898033,-41.92270503996235
6.865224704,0.9988903289603671,-42.35928412224969
6.87853568,0.9990843882346664,-42.79800918419544
6.891847168,0.9993204255075192,-43.23953332997725
6.905158144,0.9995875818299351,-43.684265265388504
6.91846912,0.9998738503570134,-44.132477112767624
6.931780608,1.0001659242285608,-44.584421230109236
6.945091584,1.000450734802656,-45.04003685093749
6.95840256,1.0007152499092142,-45.499100317143224
6.971714048,1.0009471963287386,-45.96138169715614
6.985025024,1.00113602181007,-46.426371656066756
6.998336,1.0012730866829362,-46.89346288052225
7.011647488,1.0013521425676064,-47.362021256233625
7.024958464,1.0013694928024048,-47.83130670868931
7.03826944,1.0013241395223325,-48.30056957715306
7.051580928,1.0012182218263108,-48.768993291065485
7.064891904,1.0010563808245416,-49.23591829279748
7.07820288,1.0008457411507534,-49.7007125109176
7.091514368,1.000596181058347,-50.16281213514639
7.104825344,1.000318803041042,-50.62177715934683
7.11813632,1.0000259322816691,-51.07737166249673
7.131447808,0.9997315885433496,-51.52944495038673
7.144758784,0.9994487443275079,-51.97812311622351
7.15806976,0.9991903308398137,-52.423550182294534
7.171381248,0.99896836800146,-52.86612026607262
7.184692224,0.9987929772439518,-53.30639223051832
7.1980032,0.998672485754211,-53.744915822789295
7.211314688,0.9986121864686456,-54.18243350134303
7.224625664,0.9986152018686426,-54.61971571714906
7.23793664,0.9986811168939261,-55.057518395517256
7.251248128,0.9988074639580148,-55.496641213041826
7.264559104,0.9989883061167547,-55.937731467990126
7.27787008,0.999215415338013,-56.38149670187677
7.291181568,0.9994787253904684,-56.82837423998417
7.304492544,0.9997658923549967,-57.27878657064873
7.31780352,1.0000640335949043,-57.732911488427646
7.331115008,1.0003594925631432,-58.19080674019258
7.344425984,1.0006388467230707,-58.65237500515647
7.35773696,1.000889299331658,-59.11732199460196
7.371048448,1.0010993395642627,-59.585238294350624
7.384359424,1.0012594403842972,-60.05556565648744
7.3976704,1.0013620527651748,-60.527629274184136
7.410981888,1.0014027737305007,-61.00072733957911
7.424292864,1.001379244970097,-61.47404290590792
7.43760384,1.0012926607171524,-61.94682205986203
7.450915328,1.0011469381755864,-62.41834223111322
7.464226304,1.0009484539575446,-62.88787721293302
7.47753728,1.0007062174979877,-63.35483861656129
7.490848768,1.0004311207485788,-63.818729862012184
7.504159744,1.000135733432829,-64.279293030156
7.51747072,0.9998333530778486,-64.73631420722738
7.530782208,0.999538003996562,-65.18974144681104
7.544093184,0.9992630208065877,-65.63979568992134
7.55740416,0.999021004708739,-66.08677630875148
7.570715648,0.9988231564271972,-66.531185032588
7.584026624,0.998678521101086,-66.9735795745334
7.5973376,0.9985939219869104,-67.4146558203793
7.610649088,0.9985733386261098,-67.85522693601695
7.623960064,0.9986177264458704,-68.2960083610058
7.63727104,0.998725139387664,-68.73788001847728
7.650582528,0.99889087405672,-69.18155123339572
7.663893504,0.9991073699133262,-69.62772235434338
7.67720448,0.9993647729451371,-70.07690138917376
7.690515968,0.999651492013074,-70.52956507053118
7.703826944,0.9999545068411189,-70.98600370155421
7.71713792,1.0002597839117204,-71.4462963317601
7.730449408,1.000553508929747,-71.91041190496699
7.743760384,1.0008222780189149,-72.37811436087611
7.75707136,1.0010539210376668,-72.84903513457216
7.770382848,1.0012377500143672,-73.3226500519072
7.783693824,1.0013652815380605,-73.79831665097534
7.7970048,1.001430638955878,-74.27529263253749
7.810316288,1.0014307592175271,-74.75282363307882
7.823627264,1.0013655589188057,-75.23009598921907
7.83693824,1.0012377637501708,-75.70638076551393
7.850249728,1.0010534289640725,-76.18084804919962
7.863560704,1.0008202797299859,-76.65291256846537
7.87687168,1.0005493226096924,-77.12200976414857
7.890183168,1.0002526377160863,-77.58778767522331
7.903494144,0.9999436026826444,-78.04998920833582
7.91680512,0.9996364170034704,-78.50848566793768
7.930116608,0.9993451446446268,-78.96347941270986
7.943427584,0.999083056949583,-79.41512856487599
7.95673856,0.9988622054543037,-79.8639897580394
7.970050048,0.9986926710058847,-80.310513754094
7.983361024,0.9985823701151901,-80.75545615934328
7.996672,0.9985365808200202,-81.19953208307147
8.009983488,0.9985572700078064,-81.6435808436627
8.023294464,0.9986439622680058,-82.08842412834852
8.03660544,0.9987924332482051,-82.53483407384857
8.049916928,0.9989961785123496,-82.98351484798468
8.063227904,0.9992460043752631,-83.4351705342149
8.07653888,0.9995305675517316,-83.89022402296527
8.089850368,0.9998368374820521,-84.34903257307666
8.103161344,1.0001509117194574,-84.81180091144262
8.11647232,1.0004584289055212,-85.27851053131697
8.129783808,1.000745561918186,-85.74904144006447
8.143094784,1.0009989659840026,-86.22304054040032
8.15640576,1.0012071980632797,-86.69999182636201
8.169717248,1.0013605434070725,-87.17932804382791
8.183028224,1.00145223362575,-87.66031938387562
8.1963392,1.0014778362847558,-88.14217398513658
8.209650688,1.0014358930353753,-88.6240853305985
8.222961664,1.001328376197152,-89.10523913080945
8.23627264,1.0011600783284622,-89.58486497048047
8.249584128,1.0009384100923044,-90.06224219355964
8.262895104,1.000673342752892,-90.53680044509795
8.27620608,1.0003769107333724,-91.0080458845731
8.289517568,1.0000626212108121,-91.47568423607952
8.302828544,0.9997447547414514,-91.93958429074196
8.31613952,0.9994375940618867,-92.39977166061341
8.329451008,0.9991553242612684,-92.85645072188086
8.342761984,0.9989109361635888,-93.31003010813623
8.35607296,0.9987155727350726,-93.76100087021365
8.369384448,0.9985783175362871,-94.21005503241643
8.382695424,0.9985055958947685,-94.65794925543341
8.3960064,0.9985008088759969,-95.105476779151
8.409317888,0.9985643430086723,-95.55349921338926
8.422628864,0.9986934092890497,-96.00280576548698
8.435940352,0.9988822596743702,-96.4542232544425
8.449251328,0.9991222452885318,-96.90843756514874
8.462562304,0.9994026537071893,-97.36596066311586
8.475873792,0.9997106666834414,-97.82724364737435
8.489184768,1.0000322664135897,-98.29255835596192
8.502495744,1.0003528980057552,-98.76193725964416
8.515807232,1.0006578692920882,-99.23533694989433
8.529118208,1.0009333738719806,-99.7124165695814
8.542429184,1.0011667002434983,-100.19281115688644
8.555740672,1.0013472346598828,-100.67585425456102
8.569051648,1.001466581269689,-101.1609409196841
8.582362624,1.0015194552156643,-101.6472034231234
8.595674112,1.001503078313682,-102.13388373778587
8.608985088,1.001418125290518,-102.62006524203298
8.622296064,1.001268261176359,-103.10501528835921
8.63560704,1.0010603459852072,-103.58790217429389
8.648918016,1.0008034212628825,-104.06813155930608
8.662230016,1.0005092760883858,-104.54509874687926
8.675540992,1.0001911279102174,-105.01849198068275
8.688851968,0.9998634881966183,-105.48804871989547
8.702162944,0.9995411673134021,-105.95376636248258
8.71547392,0.9992389216165746,-106.4157833301228
8.728784896,0.9989706355962451,-106.87440499842279
8.742096896,0.9987485406197563,-107.33013519710377
8.755407872,0.9985829956246524,-107.78360469535707
8.768718848,0.9984816466855106,-108.23554487167333
8.782029824,0.9984491233754702,-108.68681579621949
8.7953408,0.9984872365687015,-109.13825344427943
8.808651776,0.9985942805743903,-109.5906881979814
8.821963776,0.9987656750400415,-110.04499392683972
8.835274752,0.9989934514899488,-110.50185440554864
8.848585728,0.9992675262196454,-110.96196218612782
8.861896704,0.9995755011297206,-111.42580645335025
8.87520768,0.9999031639493072,-111.89370690592975
8.888518656,1.0002358257390216,-112.36581603308821
8.901830656,1.0005583795276172,-112.8420761688786
8.915141632,1.000855827065688,-113.32232168249425
8.928452608,1.0011149372862551,-113.80613463693695
8.941763584,1.0013236906410683,-114.29298698265221
8.95507456,1.001472534485502,-114.78217753490702
8.968385536,1.0015545803271777,-115.27293900728206
8.981697536,1.001566039030531,-115.76446618680151
8.995008512,1.0015060942253111,-116.25585846354323
9.008319488,1.0013773818967209,-116.74628051492536
9.021630464,1.0011856695255104,-117.23490402375005
9.03494144,1.0009394378910321,-117.72100624291689
9.048252416,1.000649667904717,-118.20397377231123
9.061564416,1.0003295883070806,-118.68338083657301
9.074875392,0.999993592203383,-119.15894127187143
9.088186368,0.999656932247225,-119.6304706695608
9.101497344,0.9993350274867016,-120.09812804101607
9.11480832,0.9990424806553402,-120.56213480926262
9.128119296,0.9987928162397293,-121.02291995403974
9.141431296,0.9985974682175625,-121.48113207577649
9.154742272,0.9984654707454261,-121.93743373654338
9.168053248,0.9984030917175465,-122.39267091196305
9.181364224,0.998413255232279,-122.8477345714189
9.1946752,0.9984956680304136,-123.30348291844851
9.2079872,0.9986467850276189,-123.76082742381885
9.221298176,0.9988598163952817,-124.2205306330059
9.234609152,0.9991251548002679,-124.68331774901431
9.247920128,0.9994307615422049,-125.1497625374507
9.261231104,0.9997629134869354,-125.62030924488123
9.27454208,1.0001064176497212,-126.0951336746356
9.28785408,1.000445685066651,-126.57431503079015
9.301165056,1.0007653234032263,-127.05770193280894
9.314476032,1.0010506673763,-127.54495493218076
9.327787008,1.0012888034971559,-128.0356096427007
9.341097984,1.0014686966010298,-128.52897478372248
9.35440896,1.0015821781091314,-129.02431881779341
9.36772096,1.001623915267203,-129.52077748624922
9.381031936,1.0015917585196958,-130.0174884973539
9.394342912,1.0014871567350425,-130.513552815881
9.407653888,1.0013144526645095,-131.0080579945548
9.420964864,1.001081476211331,-131.5002989876463
9.43427584,1.0007986933958464,-131.98954090552104
9.44758784,1.0004786738323244,-132.47525212419157
9.460898816,1.0001359281312303,-132.95708385053567
9.474209792,0.9997860463911529,-133.43477472705268
9.487520768,0.9994448423821727,-133.90842318532344
9.500831744,0.9991280171737363,-134.3781395012521
9.51414272,0.9988498138244956,-134.8443608629282
9.52745472,0.998623359701365,-135.30760179980658
9.540765696,0.9984588522146948,-135.76855800671157
9.554076672,0.9983641376899148,-136.22807187635897
9.567387648,0.998343564421192,-136.68699985694133
9.580698624,0.9983983572571195,-137.14625845872544
9.5940096,0.9985262222384009,-137.60680826753716
9.6073216,0.9987213647482271,-138.06946344317234
9.620632576,0.9989751512084375,-138.53505723946154
9.633943552,0.9992761509589617,-139.00419193692153
9.647254528,0.9996106108574933,-139.4773718940663
9.660565504,0.9999635188381609,-139.95494854107142
9.67387648,1.0003188275674602,-140.437047553294
9.68718848,1.0006602043465025,-140.92356726660677
9.700499456,1.0009724636563748,-141.4142673931272
9.713810432,1.001241065664485,-141.90870655484505
9.727121408,1.0014538230562273,-142.40628087301397
9.740432384,1.0016009264787942,-142.9062169009702
9.75374336,1.00167568208603,-143.40772597037457
9.76705536,1.0016742735462714,-143.90985580728187
9.780366336,1.001596697864859,-144.41168949946575
9.793677312,1.001446431766381,-144.91231601974584
9.806988288,1.0012298895103884,-145.41088965725774
9.820299264,1.000956707447187,-145.90665093573458
9.83361024,1.0006392264228794,-146.3989566358431
9.84692224,1.0002917038056576,-146.88738212267762
9.860233216,0.9999298339380703,-147.37162371709854
9.873544192,0.9995700531261992,-147.8515878682527
9.886855168,0.9992287159986694,-148.327391231845
9.900166144,0.9989213793487299,-148.79937921552812
9.91347712,0.9986621996069952,-149.26800294938803
9.92678912,0.9984631687846323,-149.73393361989028
9.940100096,0.9983335215829483,-150.19800592548702
9.953411072,0.998279243730497,-150.66107758662997
9.966722048,0.9983031770894619,-151.12408462304305
9.980033024,0.9984043139320632,-151.58800733717692
9.993344,0.9985782767711596,-152.05377264091072
10.006656,0.9988174309824795,-152.52221621649707
10.019966976,0.9991107817549346,-152.99411030359684
10.033277952,0.9994453568350341,-153.46999329949614
10.046588928,0.999805916237598,-153.95032994860208
10.059899904,1.00017607235482,-154.4353058499358
10.07321088,1.000539129689651,-154.92494479901558
10.08652288,1.0008784219477211,-155.41906866742215
10.099833856,1.0011786346406917,-155.9173085793065
10.113144832,1.001425966777857,-156.41907698491872
10.126455808,1.0016092006486332,-156.92366530145804
10.139766784,1.0017197382560452,-157.43021667052625
10.15307776,1.0017523870807175,-157.93787964349335
10.16638976,1.0017055052579995,-158.4456368640579
10.179700736,1.001580935592438,-158.95255011603803
10.193011712,1.0013842293660742,-159.45771521786256
10.206322688,1.0011240307350326,-159.96024323906354
10.219633664,1.0008119004597513,-160.45947746079796
10.23294464,1.0004617326701728,-160.95484205645468
10.24625664,1.0000894702668186,-161.44595161201025
10.259567616,0.999711968820807,-161.93264689109165
10.272878592,0.9993461916938894,-162.4149234499497
10.286189568,0.9990091096998198,-162.8930445099022
10.299500544,0.9987158090590926,-163.3674311774569
10.31281152,0.9984800040124505,-163.83870106005045
10.32612352,0.9983126429915544,-164.307670531805
10.339434496,0.9982215157751412,-164.77514942405517
10.352745472,0.9982108969930404,-165.2421466642634
10.366056448,0.9982817065688843,-165.70966681803276
10.379367424,0.99843074059335,-166.17866821989023
10.3926784,0.9986514952467885,-166.65010356091267
10.4059904,0.9989343752361316,-167.1247989493694
10.419301376,0.9992661173558556,-167.60341448029047
10.432612352,0.9996322176219316,-168.0864908118886
10.445923328,1.000015882661393,-168.57434631122834
10.459234304,1.0003998332979422,-169.06707554416928
10.47254528,1.000766582612731,-169.56458025100144
10.48585728,1.0010994972359237,-170.06656786762952
10.499168256,1.0013832977860349,-170.5725291375323
10.512479232,1.0016050624500152,-171.08176331065175
10.525790208,1.001754617115771,-171.59348204937183
10.539101184,1.0018249493370872,-172.10674382247788
10.55241216,1.0018125540055534,-172.62057724972317
10.56572416,1.0017178437669922,-173.1339590934064
10.579035136,1.0015448665513966,-173.6459245792973
10.592346112,1.001301073983688,-174.1555454480475
10.605657088,1.0009974649669358,-174.66200145354657
10.618968064,1.0006473274803787,-175.16467819998263
10.63227904,1.0002667097790237,-175.6630729257846
10.64559104,0.9998724930657583,-176.15688901672038
10.658902016,0.9994827071387312,-176.64607121275264
10.672212992,0.9991150888903675,-177.1307651015813
10.685523968,0.9987863430203034,-177.61132685998592
10.698834944,0.998511574749962,-178.08835304375827
10.71214592,0.9983035248826729,-178.5625294896093
10.72545792,0.9981718280932838,-179.03475682228373
10.738768896,0.9981228301145434,-179.506039417823
10.752079872,0.9981589499794469,-179.97737063188958
10.765390848,0.9982789216546027,179.55020103731835
10.778701824,0.9984773359586481,179.07565263793418
10.7920128,0.9987455961690827,178.5980828457054
10.8053248,0.9990716065980118,178.116686546894
10.818635776,0.9994406901753934,177.63087141413806
10.831946752,0.9998362796601313,177.14016939423888
10.845257728,1.000240361346822,176.64440508353906
10.858568704,1.00063461212771,176.14354633039702
10.871880704,1.0010011821229658,175.63783129067724
10.88519168,1.001323538335855,175.1276935233217
10.898502656,1.0015866124498112,174.61378821753433
10.911813632,1.0017786537837952,174.09688985617288
10.925124608,1.0018904213958688,173.57791727399302
10.938435584,1.0019169363316467,173.05787347664088
10.951747584,1.0018565454761643,172.53781131631922
10.96505856,1.0017116085610844,172.01878991390623
10.978369536,1.0014885655197574,171.50178964900888
10.991680512,1.0011971126436232,170.98771963875836
11.004991488,1.0008503062571774,170.47733295116782
11.018302464,1.0004634153261527,169.97122106954808
11.031614464,1.000054162829554,169.46980844882972
11.04492544,0.9996407855587027,168.9732400685262
11.058236416,0.9992420302358596,168.48148183065734
11.071547392,0.9988762031200714,167.99425570094436
11.084858368,0.9985600475109343,167.5110617844394
11.098169344,0.9983081715387592,167.0312214935647
11.111481344,0.9981320622432643,166.55384651599255
11.12479232,0.9980402784913238,166.0779785729236
11.138103296,0.9980371291994946,165.60255939732326
11.151414272,0.9981230762284409,165.12648325834596
11.164725248,0.9982946594142776,164.64866339053017
11.178036224,0.9985441554130136,164.16810263193588
11.191348224,0.9988606795519362,163.6838989005789
11.2046592,0.9992298210927404,163.19530588812805
11.217970176,0.9996351277847538,162.70178589077184
11.231281152,1.0000582516363272,162.20300523995363
11.244592128,1.0004799966089715,161.69883634407782
11.257903104,1.0008815443167913,161.18944763045536
11.271215104,1.0012441174439235,160.6751526548015
11.28452608,1.0015515820475314,160.15655802031358
11.297837056,1.0017897739271064,159.63439863151015
