freq,mag,phase
6.0,1.00040775314919,-124.09868978703904
6.002287616,1.0003074187831802,-124.24982414068683
6.004575232,1.0001876406290275,-124.39937094031926
6.006862848,1.0000564355545178,-124.54703112700973
6.009150464,0.9999217270159226,-124.69279711682945
6.011438592,0.9997923991974055,-124.83660997242406
6.013726208,0.9996763226028998,-124.97857935219655
6.016013824,0.999581146920842,-125.11908766252016
6.01830144,0.9995128176440652,-125.25833401930676
6.020589056,0.9994756683630428,-125.3968120926403
6.022876672,0.9994720736375118,-125.53502564499215
6.025164288,0.9995022234998704,-125.67336031872667
6.027451904,0.9995643513914962,-125.81237372665377
6.029740032,0.9996543661470613,-125.95249695503732
6.032027648,0.9997668035525955,-126.09403760590371
6.034315264,0.999894184894868,-126.23734644515302
6.03660288,1.0000286719971447,-126.3825840397241
6.038890496,1.000161744111073,-126.52968226098889
6.041178112,1.000284831431538,-126.6786607019338
6.043465728,1.0003900535106514,-126.82930595170743
6.045753344,1.0004711692076718,-126.98126475314317
6.04804096,1.000522532462006,-127.13423221549476
6.050329088,1.00054112622319,-127.2876528153577
6.052616704,1.0005257070704996,-127.44107988563128
6.05490432,1.000477352387988,-127.59405625139698
6.057191936,1.0003990050367617,-127.74606760238215
6.059479552,1.0002955673053116,-127.89676545954006
6.061767168,1.0001737305180458,-128.0458450196168
6.064054784,1.0000411260408715,-128.19300876954225
6.0663424,0.99990617071651,-128.3382517181973
6.068630016,0.9997774521105219,-128.48154306995855
6.070918144,0.9996631344363247,-128.62306311833714
6.07320576,0.9995703487014772,-128.76308061906786
6.075493376,0.9995052451417997,-128.90191255397986
6.077780992,0.999471708874722,-129.04000700142728
6.080068608,0.999472086543319,-129.1778370504044
6.082356224,0.999506209963724,-129.31593014774754
6.08464384,0.9995720850299004,-129.4547448129385
6.086931456,0.9996653664462609,-129.59467388524146
6.089219584,0.999780281401842,-129.73614810160353
6.0915072,0.9999093350260875,-129.8793445470264
6.093794816,1.0000446706548158,-130.0244545413041
6.096082432,1.0001774506209484,-130.1715041319286
6.098370048,1.0002993495871557,-130.3203792273298
6.100657664,1.000402428740835,-130.47089284079178
6.10294528,1.0004804556063858,-130.62273271774092
6.105232896,1.0005284451220333,-130.77543169800484
6.107520512,1.000543163378888,-130.92861090752794
6.10980864,1.000523856519496,-131.08170284537908
6.112096256,1.00047152151336,-131.23428777902723
6.114383872,1.000389745352741,-131.38586053648007
6.116671488,1.000283381405245,-131.53610438650662
6.118959104,1.0001594118070807,-131.68462434578439
6.12124672,1.0000256540461743,-131.83126315203924
6.123534336,0.99989044443464,-131.97595463971865
6.125821952,0.9997624806954234,-132.1186867705986
6.128109568,0.9996498555073177,-132.25966334262972
6.130397696,0.9995598233558264,-132.3991249891341
6.132685312,0.9994979374922635,-132.5374976654643
6.134972928,0.9994681913130885,-132.67518859606997
6.137260544,0.9994725100996427,-132.81264663520247
6.13954816,0.9995106268946641,-132.95044067589174
6.141835776,0.9995801544389856,-133.08896376645595
6.144123392,0.9996766635131883,-133.22869090888312
6.146411008,0.9997939900209609,-133.36993921702927
6.148699136,0.9999248240962414,-133.5129861273853
6.150986752,1.0000607694817607,-133.65801003270437
6.153274368,1.0001931460982123,-133.80491356516075
6.155561984,1.000313661585839,-133.9536677881919
6.1578496,1.0004146333351935,-134.1040152645632
6.160137216,1.0004896594623074,-134.25562002751303
6.162424832,1.0005340584507152,-134.40808865324928
6.164712448,1.000544778193774,-134.56090611156915
6.167000064,1.0005214030510041,-134.71363018060887
6.169288192,1.0004652894478194,-134.86578534008686
6.171575808,1.0003799801671407,-135.01688536573388
6.173863424,1.0002707866113434,-135.1665281505834
6.17615104,1.0001448606498968,-135.3144836525672
6.178438656,1.000009945865554,-135.46051453587225
6.180726272,0.9998746768680208,-135.60462683277495
6.183013888,0.9997475794802212,-135.74669595771311
6.185301504,0.9996368745667485,-135.8870903598262
6.18758912,0.9995495382751394,-136.02602563046193
6.189877248,0.9994910274991344,-136.16383632846888
6.192164864,0.9994650877131778,-136.3010692015527
6.19445248,0.9994734820058427,-136.4381512350782
6.196740096,0.9995155799129467,-136.57555344184752
6.199027712,0.9995887780836328,-136.71377233112807
6.201315328,0.9996884194052951,-136.85325155060363
6.203602944,0.9998082475697496,-136.9943146835418
6.20589056,0.9999405637837039,-137.1371854117306
6.208178688,1.0000769541180718,-137.28197250029262
6.210466304,1.0002089077951315,-137.42874147823474
6.21275392,1.0003278819959884,-137.57728757036926
6.215041536,1.0004265469221545,-137.72738862954697
6.217329152,1.0004984113533477,-137.8787207992378
6.219616768,1.000539162116755,-138.03087313288347
6.221904384,1.0005459314531089,-138.18330947370228
6.224192,1.0005185214402215,-138.33564587967382
6.226479616,1.0004584997203563,-138.4872817105103
6.228767744,1.0003697369357938,-138.63785064362173
6.23105536,1.0002578364964088,-138.7868970326377
6.233342976,1.000129854106209,-138.9342192054866
6.235630592,0.9999939879144063,-139.07960617778892
6.237918208,0.9998587369337677,-139.22297125373007
6.240205824,0.9997327733854018,-139.3644568895385
6.24249344,0.9996239948184262,-139.50417039646877
6.244781056,0.9995394240252382,-139.64250741942726
6.247068672,0.9994843992517475,-139.77978837347334
6.2493568,0.9994624170631489,-139.91647610963142
6.251644416,0.9994748671804564,-140.05309614494175
6.253932032,0.9995209690864199,-140.19010978995942
6.256219648,0.99959790659567,-140.32798023657216
6.258507264,0.9997006510773402,-140.46714328319848
6.26079488,0.9998227843461456,-140.60797262866515
6.263082496,0.9999564806547261,-140.75060861816345
6.265370112,1.0000933843580304,-140.89519191551642
6.26765824,1.000224672608382,-141.0416912887998
6.269945856,1.0003421658724887,-141.19001851286765
6.272233472,1.0004382489645731,-141.3398633473584
6.274521088,1.000506963255693,-141.49088505078907
6.276808704,1.0005438884279256,-141.64263653879442
6.27909632,1.0005466166874444,-141.79468126502633
6.281383936,1.0005150257208977,-141.9464996762199
6.283671552,1.0004511537857572,-142.0975950521818
6.285959168,1.0003590094264954,-142.24755638021975
6.288247296,1.000244364609363,-142.3959562186414
6.290534912,1.0001145461919159,-142.5425725248504
6.292822528,0.9999777504690467,-142.68725687523542
6.295110144,0.999842679442799,-142.82993456358082
6.29739776,0.9997178743930298,-142.97069041951048
6.299685376,0.9996112142276617,-143.10975892227597
6.301972992,0.9995296330412938,-143.2474176219673
6.304260608,0.9994781232899952,-143.3840940618613
6.306548224,0.9994601187887695,-143.52022484874348
6.308836352,0.999476714250859,-143.65636365947194
6.311123968,0.9995269768689258,-143.7928941076431
6.313411584,0.9996074282756864,-143.9304462286432
6.3156992,0.9997132448930769,-144.06928332181562
6.317986816,0.9998376868306891,-144.20979210008608
6.320274432,0.9999727670791307,-144.35215732485523
6.322562048,1.000109971993005,-144.49644865880313
6.324849664,1.000240518675093,-144.6427164917056
6.327137792,1.0003562521203673,-144.79072375204075
6.329425408,1.0004497290728727,-144.94026037774586
6.331713024,1.0005150811812031,-145.09092326233355
6.33400064,1.0005481926881687,-145.24224035226516
6.336288256,1.0005467701561495,-145.39383025377853
6.338575872,1.0005111336633057,-145.54507085757618
6.340863488,1.0004433774464871,-145.6955747872907
6.343151104,1.0003478785612392,-145.84490029623493
6.34543872,1.0002305870127821,-145.99259654840418
6.347726848,1.000098910895347,-146.13850638133812
6.350014464,0.9999613235428759,-146.28243581363543
6.35230208,0.9998265033680835,-146.42432589203167
6.354589696,0.9997029750491871,-146.56434858569833
6.356877312,0.999598635755469,-146.70267903049378
6.359164928,0.9995200500137219,-146.83963293590287
6.361452544,0.9994723334048055,-146.97568666950505
6.36374016,0.9994583416014662,-147.11120691547634
6.366027776,0.9994791250580921,-147.24679477816846
6.368315904,0.9995333685732152,-147.38289132020472
6.37060352,0.9996175135307904,-147.51997507402731
6.372891136,0.9997263708573031,-147.6584640887698
6.375178752,0.9998529567214871,-147.7986348358032
6.377466368,0.9999892586672106,-147.9406924267091
6.379753984,1.00012666806235,-148.08471102524993
6.3820416,1.000256400617317,-148.23063840831122
6.384329216,1.0003702916606714,-148.37831738575468
6.386617344,1.0004609974956142,-148.52747746357036
6.38890496,1.0005229198619303,-148.67772357775326
6.391192576,1.0005520483665795,-148.8286061924773
6.393480192,1.0005464775499866,-148.97964227199105
6.395767808,1.0005066123383684,-149.13029300857312
6.398055424,1.0004350564288684,-149.28014513022876
6.40034304,1.0003361398614417,-149.4287295606403
6.402630656,1.0002162670410204,-149.57571421013273
6.404918272,1.000083031911367,-149.72081642784795
6.4072064,0.9999447639682718,-149.8639367487438
6.409494016,0.9998103429990511,-150.0050308127785
6.411781632,0.9996882380431485,-150.14426817977827
6.414069248,0.9995862924395158,-150.28181784789655
6.416356864,0.999510862059902,-150.4180742031896
6.41864448,0.9994668374977684,-150.5533964621305
6.420932096,0.9994570448647206,-150.68833748939417
6.423219712,0.9994820558266508,-150.82334621412016
6.425507328,0.9995402682682746,-150.95896963591886
6.427795456,0.9996280977233332,-151.09559610865404
6.430083072,0.9997399260745713,-151.2336645469983
6.432370688,0.999868628477379,-151.37344062145226
6.434658304,1.0000061138225398,-151.51515050345827
6.43694592,1.0001435088925126,-151.658824680109
6.439233536,1.0002722195576736,-151.8044121308696
6.441521152,1.0003840800337185,-151.9517332557935
6.443808768,1.0004719859259137,-152.1004882886016
6.446096896,1.0005303372369683,-152.2502785575533
6.448384512,1.000555422698437,-152.40061951908174
6.450672128,1.000545641831574,-152.55107530896083
6.452959744,1.0005016502354167,-152.70113036630823
6.45524736,1.000426171449127,-152.85024392201012
6.457534976,1.0003240139512821,-152.99808644789496
6.459822592,1.0002015839909968,-153.14427377321735
6.462110208,1.000066774466845,-153.288536892925
6.464397824,0.9999278461454665,-153.43081418648487
6.466685952,0.9997939598578189,-153.57107262718304
6.468973568,0.9996735018883198,-153.70944072162075
6.471261184,0.9995740093820947,-153.84619101459145
6.4735488,0.9995018825439256,-153.9816768456382
6.475836416,0.9994618348964415,-154.11630606745928
6.478124032,0.9994561541873471,-154.25058403468913
6.480411648,0.9994854753004029,-154.38500132139532
6.482699264,0.9995477622262767,-154.5200694170806
6.48498688,0.9996391932800275,-154.65621586780304
6.487275008,0.9997538751241909,-154.79384234683712
6.489562624,0.9998846974352225,-154.93322088655518
6.49185024,1.0000230872056366,-155.0745624613709
6.494137856,1.0001604540125264,-155.2178536562563
6.496425472,1.0002881245367419,-155.36305564532015
6.498713088,1.000397806864683,-155.5099629126594
6.501000704,1.000482697536632,-155.65824037264954
6.50328832,1.0005374256050183,-155.80751715041794
6.505576448,1.0005583407667626,-155.9573220825363
6.507864064,1.000544259302271,-156.10715972062772
6.51015168,1.0004960049983636,-156.25652485620276
6.512439296,1.0004167210632966,-156.40489376732535
6.514726912,1.0003113143905975,-156.5519411579264
6.517014528,1.0001864552149253,-156.69727746436044
6.519302144,1.0000500513745774,-156.84069864821862
6.52158976,0.999910844918741,-156.98204475419692
6.523877376,0.9997775785067703,-157.12144600564196
6.526165504,0.999658778150069,-157.258946018573
6.52845312,0.9995619525797669,-157.39484978485052
6.530740736,0.9994933539343818,-157.52953277126645
6.533028352,0.999457164164042,-157.66342234109752
6.535315968,0.9994558346929406,-157.7970160515197
6.537603584,0.9994893776273922,-157.93078479167275
6.5398912,0.9995558316111208,-158.06529013203686
6.542178816,0.9996508603948281,-158.20091459640975
6.544466432,0.9997683334990946,-158.3380427017777
6.54675456,0.9999011206986869,-158.4770121739177
6.549042176,1.000040430288727,-158.61793871808246
6.551329792,1.000177605199458,-158.7608134709189
6.553617408,1.000303966165963,-158.905569831695
6.555905024,1.0004113831651567,-159.05203436483242
6.55819264,1.0004931695300916,-159.19985529761
6.560480256,1.00054408677425,-159.34857188853852
6.562767872,1.0005607670146757,-159.49776868603436
6.565056,1.000542383461149,-159.6469424208137
6.567343616,1.0004899017594455,-159.7955736926888
6.569631232,1.0004067481262657,-159.94315945355123
6.571918848,1.000298048708276,-160.08936216632833
6.574206464,1.0001708233022113,-160.2338121861651
6.57649408,1.0000330900445829,-160.37630027865663
6.578781696,0.9998935587137721,-160.51676106568038
6.581069312,0.9997611016853355,-160.65518908535242
6.583356928,0.9996441615826815,-160.79176969858977
6.585645056,0.9995501560350287,-160.92684898856442
6.587932672,0.9994850019266435,-161.06068259578143
6.590220288,0.9994529813255226,-161.19378462970258
6.592507904,0.9994559259410362,-161.326670284006
6.59479552,0.9994939163316441,-161.4597914996021
6.597083136,0.9995644599095758,-161.59367740125276
6.599370752,0.9996629621062447,-161.72879156436974
6.601658368,0.9997833275197108,-161.8654370629764
6.603945984,0.9999178255578236,-162.0039083122981
6.606234112,1.00005793820209,-162.1443859631827
6.608521728,1.0001947738439605,-162.28682560874128
6.610809344,1.00031968905214,-162.4311424407161
6.61309696,1.000424766211798,-162.57711089727147
6.615384576,1.0005032930542004,-162.72437344890278
6.617672192,1.00055020371335,-162.87253742094666
6.619959808,1.000562710848576,-163.0211117811032
6.622247424,1.0005398328799169,-163.16953140742854
6.624535552,1.0004831316535814,-163.31740367100144
6.626823168,1.0003960437587387,-163.46416318955133
6.629110784,1.0002842787446091,-163.6094814795375
6.6313984,1.0001547673990505,-163.75300679445974
6.633686016,1.0000157317440543,-163.89454573419965
6.635973632,0.999876009115671,-164.03403130814675
6.638261248,0.9997445556858647,-164.17150356918796
6.640548864,0.9996296377185907,-164.3071531621499
6.64283648,0.9995385361309392,-164.44126184726352
6.645124608,0.9994771164825992,-164.57427064851646
6.647412224,0.9994492039637434,-164.70656864413976
6.64969984,0.9994567052955989,-164.83867509904388
6.651987456,0.9994990732156815,-164.97113644549287
6.654275072,0.9995736373789935,-165.10441780503191
6.656562688,0.9996756370732998,-165.23894742958413
6.658850304,0.9997987416372326,-165.37508357326692
6.66113792,0.9999349985418997,-165.5130832902084
6.663426048,1.0000757575050032,-165.65305762839344
6.665713664,1.0002121454883175,-165.79505279206896
6.66800128,1.0003354804999829,-165.93886837742738
6.670288896,1.0004379887637536,-166.08431908368414
6.672576512,1.0005130786931482,-166.2310271055186
6.674864128,1.0005560546342087,-166.37856095682454
6.677151744,1.0005641134049053,-166.52643151214923
6.67943936,1.0005367486822732,-166.67413734606643
6.681726976,1.0004757651210878,-166.8211735826775
6.684015104,1.0003848500385435,-166.96706023531738
6.68630272,1.0002699917025548,-167.11145202015314
6.688590336,1.0001383028423994,-167.2540247636077
6.690877952,0.9999980800739525,-167.39457066964755
6.693165568,0.9998584310803313,-167.5330538130207
6.695453184,0.999728017749334,-167.66953332040106
6.6977408,0.9996152402395385,-167.80421749914706
6.700028416,0.9995272283224689,-167.93743229944016
6.702316032,0.9994694637918236,-168.06949957535093
6.70460416,0.9994459722457858,-168.20096914832186
6.706891776,0.9994579762051159,-168.33233021553477
6.709179392,0.9995047329747714,-168.46409885406138
6.711467008,0.9995834839128429,-168.59674880219129
6.713754624,0.9996889147163347,-168.73069093775618
6.71604224,0.9998146434696662,-168.8662805630968
6.718329856,0.9999524433793716,-169.00374005870842
6.720617472,1.0000938452452683,-169.1432538703465
6.7229056,1.0002296649885152,-169.28472405707524
6.725193216,1.000351234512748,-169.42804458305702
6.727480832,1.0004509462167175,-169.57293073225148
6.729768448,1.0005224633449545,-169.7190304142585
6.732056064,1.0005613019420736,-169.86590598802442
6.73434368,1.000564906013507,-170.01306065990096
6.736631296,1.0005330061994442,-170.15997351720466
6.738918912,1.0004677096722572,-170.3061669641807
6.741206528,1.000373114936343,-170.4511542546369
6.743494656,1.0002551566114375,-170.59455409146722
6.745782272,1.0001212886032387,-170.73614578197623
6.748069888,0.9999801603917561,-170.87565225713558
6.750357504,0.9998405781877021,-171.0131121111984
6.75264512,0.999711360586086,-171.14855818006126
6.754932736,0.9996009296425025,-171.28226039257464
6.757220352,0.999516135721521,-171.4144582859145
6.759507968,0.9994624204883852,-171.54566842353253
6.761795584,0.9994432366321051,-171.6762967255399
6.764083712,0.9994598374407674,-171.80685820217602
6.766371328,0.9995111134301561,-171.937906868802
6.768658944,0.9995938525579934,-172.06988391184552
6.77094656,0.9997027692609087,-172.20322370547072
6.773234176,0.9998310521853933,-172.33824994423995
6.775521792,0.9999704363415992,-172.4752145146862
6.777809408,1.0001121346206556,-172.61417310660278
6.780097024,1.000247106180891,-172.75511720545566
6.782385152,1.0003668067710993,-172.89787158547065
6.784672768,1.000463712958478,-173.04219700462843
6.786960384,1.0005316148290362,-173.1876417345412
6.789248,1.0005660479293723,-173.33383426337704
6.791535616,1.0005651799482733,-173.48025613911886
6.793823232,1.0005287210031257,-173.62635076428523
6.796110848,1.0004590830845537,-173.7716327840028
6.798398464,1.000360704435011,-173.91570360159088
6.80068608,1.0002396848438373,-174.05809906632862
6.802974208,1.0001039360446098,-174.19863580475428
6.805261824,0.9999617558913259,-174.33709326211428
6.80754944,0.9998224402574426,-174.47348592167555
6.809837056,0.9996947364042957,-174.60790547836885
6.812124672,0.9995866931664867,-174.74055015312055
6.814412288,0.9995053194491188,-174.87180410435514
6.816699904,0.9994557324025864,-175.00207515723744
6.81898752,0.9994410693835699,-175.13181743647792
6.821275136,0.9994623073956268,-175.2615805257536
6.823563264,0.999518022100305,-175.39189768028268
6.82585088,0.9996049389190311,-175.52318820183382
6.828138496,0.9997171805833603,-175.65590401223898
6.830426112,0.9998480122109014,-175.79038880850158
6.832713728,0.9999887262939843,-175.92674974382763
6.835001344,1.0001307054982307,-176.06519083277794
6.83728896,1.0002646286794148,-176.20558175722954
6.839576576,1.00038237445837,-176.34777643140515
6.841864704,1.0004762168061514,-176.49146671324104
6.84415232,1.0005402746701788,-176.63630438455934
6.846439936,1.0005704475467012,-176.78177208725373
6.848727552,1.0005647792946795,-176.9273889073176
6.851015168,1.0005237127162196,-177.072632019985
6.853302784,1.0004497477082201,-177.2169750315814
6.8555904,1.0003476565202405,-177.36006393213015
6.857878016,1.0002238221382824,-177.50146056082446
6.860165632,1.0000860389066888,-177.64089642143287
6.86245376,0.9999431866662967,-177.77828129514964
6.864741376,0.9998043837488841,-177.91359515756469
6.867028992,0.9996781475239661,-178.0469216115688
6.869316608,0.9995727135317531,-178.17855674664335
6.871604224,0.9994948974720936,-178.30875353898185
6.87389184,0.9994495447875641,-178.43810792618308
6.876179456,0.9994395024434553,-178.56695732221877
6.878467072,0.9994654080952612,-178.6959330321197
6.880754688,0.9995256844898823,-178.82547165144942
6.883042816,0.9996166016461537,-178.95606435209194
6.885330432,0.9997322041036474,-179.08813402235123
6.887618048,0.9998652645244219,-179.22198641308543
6.889905664,1.000007373849235,-179.3578456137153
6.89219328,1.0001493665702301,-179.49570069765215
6.894480896,1.0002823778146275,-179.6355435112926
6.896768512,1.0003977403309698,-179.77713007028947
6.899056128,1.0004884170273438,-179.92020572170694
6.901344256,1.0005485162280523,179.93568627052213
6.903631872,1.0005742163166715,179.79093596911682
6.905919488,1.0005637478049574,179.6461562667954
6.908207104,1.000518000363373,179.50178362838744
