freq,mag,phase
6.0,0.9999598002794938,-52.606787977392756
6.008879104,0.9999562960627045,-52.95699499214176
6.017758208,0.9999546005254175,-53.30718128051497
6.026637312,0.999954832775206,-53.6573886997055
6.035515904,0.9999575364182678,-54.00766745569838
6.044395008,0.9999621760269903,-54.35799660737301
6.053274112,0.9999685694162467,-54.708391623781786
6.062153216,0.9999766042908808,-55.05891663842622
6.07103232,0.9999854045701688,-55.409563243314025
6.079911424,0.9999949608412804,-55.760354132556444
6.088790016,1.0000044443042266,-56.11133365961321
6.09766912,1.0000137817804216,-56.46241560131982
6.106548224,1.0000221055055172,-56.81364877321751
6.115427328,1.000029128021781,-57.165014547967154
6.124306432,1.0000344839228046,-57.51644366619445
6.133185536,1.0000378032069523,-57.8679933957673
6.142064128,1.0000389396542324,-58.21961217111828
6.150943232,1.0000378417596016,-58.57120479532168
6.159822336,1.0000345944284204,-58.92281791885895
6.16870144,1.000029405543617,-59.27439437638384
6.177580544,1.0000224352961802,-59.62587204580806
6.186459648,1.0000139884012396,-59.97732840720465
6.195338752,1.0000044483797519,-60.32864944508367
6.204217344,0.9999946682409152,-60.679911640977195
6.213096448,0.9999847950224966,-61.03101267809203
6.221975552,0.9999755152332893,-61.38202392225756
6.230854656,0.9999673039765647,-61.73299087965465
6.23973376,0.9999605809705897,-62.083813131311075
6.248612864,0.9999559049084641,-62.43457621306527
6.257491456,0.9999530324354512,-62.78535360463816
6.26637056,0.9999525486926765,-63.13609104918262
6.275249664,0.9999543901557598,-63.48685875179289
6.284128768,0.9999582718392789,-63.83774847672397
6.293007872,0.9999642494514689,-64.18865969802327
6.301886976,0.9999720556342891,-64.53969227359043
6.310765568,0.9999811265570314,-64.89087511709866
6.319644672,0.9999907721553454,-65.24218166933468
6.328523776,1.0000009636397007,-65.59361701891426
6.33740288,1.0000108786456805,-65.94524641049098
6.346281984,1.0000200064369067,-66.29706511137395
6.355161088,1.000028125520563,-66.64891830788923
6.364040192,1.0000345197832419,-67.00097136176397
6.372918784,1.0000389051338165,-67.3530570313623
6.381797888,1.0000411000747425,-67.70523597340421
6.390676992,1.0000409858249009,-68.0574448183906
6.399556096,1.000038426647747,-68.40963719449121
6.4084352,1.0000336880741825,-68.76184596594982
6.417314304,1.000027003778206,-69.11398569188171
6.426192896,1.000018729581668,-69.46601417439072
6.435072,1.0000093071518328,-69.81799098715916
6.443951104,0.9999988947972732,-70.16983257088499
6.452830208,0.9999884880214822,-70.52157972347797
6.461709312,0.9999785456753355,-70.87316504343467
6.470588416,0.9999694750202522,-71.22472565842513
6.479467008,0.9999616832813734,-71.5761378053866
6.488346112,0.9999557160936335,-71.92748552340518
6.497225216,0.999951971835922,-72.27879493369609
6.50610432,0.9999502634791738,-72.63008627589979
6.514983424,0.9999512009596155,-72.98139567034194
6.523862528,0.9999544150569102,-73.33273419859309
6.532741632,0.9999599227888769,-73.68413588977086
6.541620224,0.9999673777930201,-74.03571027278889
6.550499328,0.999976181863119,-74.38737465726197
6.559378432,0.9999864112214683,-74.73915747274202
6.568257536,0.9999968903018478,-75.09113317447293
6.57713664,1.000007565221361,-75.44324592961986
6.586015744,1.000017661259426,-75.79547221833211
6.594894336,1.000026622965307,-76.14790721885333
6.60377344,1.0000340944390425,-76.50047702476877
6.612652544,1.000039598708276,-76.85314481501264
6.621531648,1.0000428664040686,-77.20584851697801
6.630410752,1.0000436033990086,-77.55866814706212
6.639289856,1.0000420762599405,-77.91142869324477
6.648168448,1.000038004620715,-78.26421865547536
6.657047552,1.0000318526170977,-78.6169426191695
6.665926656,1.0000237192750956,-78.96963488304849
6.67480576,1.0000141029775211,-79.32221213304813
6.683684864,1.0000037012684633,-79.67464922933583
6.692563968,0.9999927145968222,-80.0269792911247
6.701443072,0.9999821140256537,-80.37916281536725
6.710321664,0.9999719709711986,-80.73125621118344
6.719200768,0.9999632503087824,-81.08326221726841
6.728079872,0.9999561558957545,-81.43515058899318
6.736958976,0.9999512290316189,-81.78699030317318
6.74583808,0.9999485876361561,-82.13878736039675
6.754717184,0.9999484883161665,-82.49059254155758
6.763595776,0.9999508047510732,-82.84244861550482
6.77247488,0.9999556930523744,-83.1943289696165
6.781353984,0.9999626452191667,-83.54635464850321
6.790233088,0.9999715456961689,-83.89846445346339
6.799112192,0.9999815205512566,-84.25074076417728
6.807991296,0.9999924605897131,-84.6031510928993
6.8168704,1.0000037470496081,-84.95575107023767
6.825748992,1.0000145688863362,-85.30849684373817
6.834628096,1.0000245464328479,-85.66141107711009
6.8435072,1.000033103068714,-86.01448922552775
6.852386304,1.0000397072724647,-86.36762982703968
6.861265408,1.0000441280694752,-86.72092362412862
6.870144512,1.0000460885400504,-87.0742203838435
6.879023104,1.0000453619882328,-87.42760178328857
6.887902208,1.0000422471244634,-87.78095119882359
6.896781312,1.0000365679193048,-88.13426528654105
6.905660416,1.000028933429268,-88.48751192576746
6.91453952,1.0000195261449667,-88.84063929332466
6.923418624,1.0000088352956749,-89.19370410727873
6.932297216,0.9999973964524651,-89.54658985503313
6.94117632,0.999986045108868,-89.89937000060321
6.950055424,0.9999751641395708,-90.25204262707138
6.958934528,0.999965423439565,-90.60455770375665
6.967813632,0.9999571496239741,-90.95699201621547
6.976692736,0.9999510353383232,-91.30936301233801
6.98557184,0.9999471574570418,-91.66163615495117
6.994450432,0.9999459696101651,-92.01393047368397
7.003329536,0.9999473779003808,-92.3662800757682
7.01220864,0.9999514401383208,-92.7185975560534
7.021087744,0.9999579335184541,-93.07104671989308
7.029966848,0.999966288583519,-93.42362180962549
7.038845952,0.9999764209025944,-93.77632696349278
7.047724544,0.9999875557053828,-94.12918708772408
7.056603648,0.9999993031820261,-94.48219654995364
7.065482752,1.0000109597541642,-94.83538329634524
7.074361856,1.0000218117685749,-95.18876312006462
7.08324096,1.000031489290995,-95.54230509314479
7.092120064,1.0000393213601548,-95.8959530891617
7.100998656,1.0000450315328275,-96.24971504055593
7.10987776,1.0000480635589155,-96.60357881850912
7.118756864,1.0000485370942134,-96.9574591011985
7.127635968,1.0000463153638008,-97.31136111481129
7.136515072,1.0000414959998223,-97.6652363616351
7.145394176,1.0000342993057545,-98.01899753429147
7.15427328,1.0000251785102423,-98.37271004363326
7.163151872,1.0000143757611144,-98.72632756446049
7.172030976,1.000002659872041,-99.07980531360377
7.18091008,0.9999907243878492,-99.4331204178908
7.189789184,0.9999789364003044,-99.7862850282017
7.198668288,0.9999680561897314,-100.13935792245836
7.207547392,0.9999587316269639,-100.49229835731754
7.216425984,0.999951359318909,-100.84515848947918
7.225305088,0.9999462732654952,-101.19796559523266
7.234184192,0.9999438475921427,-101.55066942693166
7.243063296,0.9999442231518174,-101.90345996301872
7.2519424,0.9999474469465551,-102.25625564085765
7.260821504,0.9999530649946959,-102.60912168140864
7.269700096,0.9999611512436827,-102.96209631148223
7.2785792,0.9999709790509783,-103.31519802387949
7.287458304,0.9999823415558075,-103.66845151845122
7.296337408,0.9999944776803733,-104.02189340115292
7.305216512,1.000006801106559,-104.37550086480529
7.314095616,1.000018649802223,-104.7293050363236
7.32297472,1.000029266076588,-105.08324948992399
7.331853312,1.0000384176520918,-105.43736763219164
7.340732416,1.00004527553302,-105.7915948643017
7.34961152,1.0000496795032137,-106.14590777797505
7.358490624,1.0000513810991871,-106.50026848797182
7.367369728,1.000050215437477,-106.85468231972196
7.376248832,1.0000461110957748,-107.20905666642227
7.385127424,1.0000396049244646,-107.56340545131442
7.394006528,1.0000307883397994,-107.91766221839764
7.402885632,1.0000202578702557,-108.27178800469531
7.411764736,1.0000083481201645,-108.62577650669705
7.42064384,0.9999957617491279,-108.9796514938159
7.429522944,0.999983204937957,-109.33338332829818
7.438401536,0.9999714374069193,-109.68692181890277
7.44728064,0.9999609692995972,-110.04036945211881
7.456159744,0.9999522634012703,-110.39367683501135
7.465038848,0.9999458589054772,-110.74693418992018
7.473917952,0.9999422451100723,-111.1001230577948
7.482797056,0.9999414745630311,-111.45329262572109
7.49167616,0.999943487330254,-111.80648215892894
7.500554752,0.9999482845478315,-112.15973732611849
7.509433856,0.9999557324265741,-112.51310929502446
7.51831296,0.9999654199501486,-112.86658251367356
7.527192064,0.9999768311492446,-113.22019831982378
7.536071168,0.9999891630447534,-113.5740101240078
7.544950272,1.0000020225836646,-113.92802154037398
7.553828864,1.0000146776189165,-114.28216875685558
7.562707968,1.0000264535064347,-114.63651452471423
7.571587072,1.0000368170933298,-114.99104789753476
7.580466176,1.000044995029951,-115.34570651295932
7.58934528,1.0000507442238076,-115.70043269700363
7.598224384,1.0000538173834657,-116.0552806592838
7.607102976,1.000053743643107,-116.41013083568443
7.61598208,1.0000507287070586,-116.76503832566237
7.624861184,1.0000449786333678,-117.11985329209242
7.633740288,1.0000366695639058,-117.47460735573223
7.642619392,1.0000262929103565,-117.82925510025821
7.651498496,1.0000142620659995,-118.18374437928074
7.6603776,1.0000013682456093,-118.53811486151629
7.669256192,0.9999881874078476,-118.89232457972416
7.678135296,0.9999753693078445,-119.24634729211863
7.6870144,0.9999637827217138,-119.60026216003232
7.695893504,0.9999538196879181,-119.95404169764906
7.704772608,0.9999461069186051,-120.30772273037883
7.713651712,0.9999410540586956,-120.66130536650172
7.722530304,0.9999389181367412,-121.01489396576885
7.731409408,0.9999398304129536,-121.36845843142859
7.740288512,0.9999436852655306,-121.72206472079957
7.749167616,0.9999504485048427,-122.07575720522945
7.75804672,0.9999596012004945,-122.42959862361452
7.766925824,0.9999708104379059,-122.78355313688502
7.775804416,0.999983410947074,-123.13769512012863
7.78468352,0.9999967073221138,-123.49202033140305
7.793562624,1.0000102004687037,-123.84654257627106
7.802441728,1.00002297819681,-124.20124726015136
7.811320832,1.000034593060133,-124.5560941997866
7.820199936,1.0000441265261395,-124.91116192017829
7.82907904,1.0000512648915099,-125.26631050638821
7.837957632,1.0000556704691757,-125.62155021460383
7.846836736,1.00005695585496,-125.97686443253622
7.85571584,1.0000551070058756,-126.33215741732091
7.864594944,1.0000502151695585,-126.68744209392995
7.873474048,1.0000426092628953,-127.0426526684936
7.882353152,1.0000326208082957,-127.39778160393377
7.891231744,1.00002064578517,-127.75277026523766
7.900110848,1.0000075107325828,-128.10760395985903
7.908989952,0.9999936975617711,-128.4622864572398
7.917869056,0.999980141297272,-128.81676046615306
7.92674816,0.9999673722229664,-129.17110834398324
7.935627264,0.9999560776589564,-129.5253128558576
7.944505856,0.9999468910260899,-129.87938462984272
7.95338496,0.9999404036161245,-130.2333937317011
7.962264064,0.9999368484003663,-130.58732044583573
7.971143168,0.9999364614808182,-130.94120287156167
7.980022272,0.9999393015302785,-131.29517483908054
7.988901376,0.9999450279869491,-131.64919678643184
7.99778048,0.9999536728102107,-132.00331063105978
8.006659072,0.999964563690783,-132.35756359588854
8.015538176,0.9999771928313166,-132.71197761783068
8.02441728,0.999990927551508,-133.0665872053757
8.033296384,1.0000050694881433,-133.42141800823293
8.042175488,1.0000188245488824,-133.776441027436
8.051054592,1.0000315131737199,-134.13162131459924
8.059933184,1.0000424681412112,-134.48700947208457
8.068812288,1.0000510910302238,-134.84252428240208
8.077691392,1.0000568741876428,-135.1981071469423
8.086570496,1.0000595943176842,-135.55379906186192
8.0954496,1.000059058492649,-135.9095423282863
8.104328704,1.0000552863951253,-136.26524543683448
8.113207296,1.0000485057983026,-136.6208961813132
8.1220864,1.0000389630670625,-136.97645539359232
8.130965504,1.0000272928024219,-137.33186325966253
8.139844608,1.0000139161238604,-137.68714173540934
8.148723712,0.9999997130294705,-138.04225272961176
8.157602816,0.9999852780781469,-138.39718439011435
8.16648192,0.9999715127170336,-138.75193974413997
8.175360512,0.9999589307290548,-139.10651482923282
8.184239616,0.9999484511281008,-139.460956380579
8.19311872,0.999940354044379,-139.81532265845692
8.201997824,0.9999353795151503,-140.1695722410656
8.210876928,0.9999334474316505,-140.52381508734572
8.219756032,0.9999349763126008,-140.87805903255708
8.228634624,0.9999397527842356,-141.23235658620357
8.237513728,0.9999476756123598,-141.58672106295214
8.246392832,0.999957985028134,-141.94125327450504
8.255271936,0.9999705841357269,-142.29591422561575
8.26415104,0.9999845665174171,-142.65078084072343
8.273030144,0.9999992518375905,-143.00585419262578
8.281908736,1.0000139101462184,-143.36111725493717
8.29078784,1.00002775791698,-143.71656914313243
8.299666944,1.000040063026432,-144.07222920926824
8.308546048,1.0000501216528426,-144.42805159715638
8.317425152,1.0000574575497367,-144.7839890477999
8.326304256,1.0000617825029645,-145.14000758807302
8.33518336,1.0000626503164889,-145.4961095677631
8.344061952,1.0000601258379427,-145.85218172904555
8.352941056,1.0000543184985937,-146.20821304990733
8.36182016,1.0000455596045845,-146.56416008576565
8.370699264,1.0000342161532858,-146.92001771311064
8.379578368,1.0000208186993984,-147.27567684921502
8.388457472,1.0000062602852549,-147.63118815478572
8.397336064,0.9999911508869552,-147.98649345566778
8.406215168,0.9999763374182024,-148.3416392938839
8.415094272,0.9999625806600476,-148.69659536731425
8.423973376,0.9999506169363095,-149.05139761573332
8.43285248,0.9999410429197237,-149.40607567614035
8.441731584,0.9999343381403568,-149.76063028077618
8.450610688,0.9999309554089888,-150.11515316564095
8.45948928,0.9999311216131417,-150.46964436981017
8.468368384,0.9999347250990256,-150.8241592933365
8.477247488,0.9999415611897942,-151.17878684830984
8.486126592,0.9999513162296081,-151.53352426183767
8.495005696,0.9999636847802409,-151.88840438833765
8.5038848,0.9999777141439289,-152.24344447219414
8.512763392,0.9999928759183295,-152.59875055481155
8.521642496,1.0000083214517141,-152.95419254092764
8.5305216,1.0000232947974905,-153.3098982181525
8.539400704,1.0000368532305437,-153.6657933994371
8.548279808,1.000048473025151,-154.02187683035578
8.557158912,1.0000573956544174,-154.37808106431075
8.566037504,1.0000633250267494,-154.73440789001393
8.574916608,1.0000657582082142,-155.09079572227787
8.583795712,1.0000646064622194,-155.44721034430086
8.592674816,1.0000599849618532,-155.80357283478236
8.60155392,1.0000520121713243,-156.15990033363454
8.610433024,1.000041139116125,-156.5160894945365
8.619312128,1.0000280885289925,-156.872123965151
8.628191232,1.0000132793590446,-157.22800887807307
8.637070336,0.9999976177263284,-157.58369005082758
8.64594944,0.9999818351835394,-157.93917852792535
8.65482752,0.9999669206709272,-158.29447536319245
8.663706624,0.999953519357532,-158.64958348686145
8.672585728,0.999942341057962,-159.00454287386307
8.681464832,0.9999341399788417,-159.35937846020053
8.690343936,0.9999290140116301,-159.7141582295547
8.69922304,0.99992761792742,-160.06886651583784
8.708102144,0.9999298300177669,-160.42361060347292
8.716981248,0.9999356735351459,-160.77839863153272
8.725860352,0.9999446488320057,-161.13329518823357
8.734739456,0.9999564531647186,-161.4883688261176
8.74361856,0.9999705306021685,-161.84358440197573
8.752497664,0.9999859896022464,-162.19900933234868
8.761375744,1.0000020936525766,-162.5546322710743
8.770254848,1.0000180787023238,-162.91052833708176
8.779133952,1.0000329855979868,-163.2665915736528
8.788013056,1.00004607577481,-163.6228590172006
8.79689216,1.0000567416814192,-163.97928366637896
8.805771264,1.0000642650114433,-164.33583752755067
8.814650368,1.000068370822756,-164.69248845800698
8.823529472,1.000068794845418,-165.04921222385676
8.832408576,1.0000655122707753,-165.4058617251606
8.84128768,1.000058516281212,-165.76250694032447
8.850166784,1.000048433831919,-166.11903470122095
8.859045888,1.0000356508373105,-166.47539068204733
8.867924992,1.0000208426538113,-166.83157769101678
8.876803072,1.000004698865708,-167.18760911263794
8.885682176,0.9999881243088282,-167.54341079979548
8.89456128,0.9999720541810955,-167.89900412432655
8.903440384,0.9999572623161616,-168.25440531727259
8.912319488,0.9999445370095245,-168.60962695137744
8.921198592,0.9999345195463396,-168.96468918562385
8.930077696,0.9999278109277554,-169.3196810899785
8.9389568,0.9999247038898655,-169.67459002675557
8.947835904,0.99992536954512,-170.02949972960087
8.956715008,0.9999298511193002,-170.38442626186946
8.965594112,0.9999378718992428,-170.73945784004712
8.974473216,0.999949138364982,-171.09463677413663
8.98335232,0.9999628628087301,-171.4499711799718
8.9922304,0.9999785442855366,-171.80550113277582
9.001109504,0.9999951994650375,-172.16124972487682
9.009988608,1.0000120450002756,-172.51723689848325
9.018867712,1.0000282311496387,-172.8734350484956
9.027746816,1.0000428806209407,-173.22988265490565
9.03662592,1.0000552056558614,-173.58645932244045
9.045505024,1.00006450528249,-173.9432287171558
9.054384128,1.0000703906239619,-174.30009115619478
9.063263232,1.000072392297057,-174.65700568926522
9.072142336,1.0000706500648968,-175.01395106331728
9.08102144,1.0000649321983248,-175.37082194759674
9.089900544,1.0000557055231432,-175.72762827339076
9.098778624,1.0000434245969039,-176.08429109182583
9.107657728,1.0000287451035696,-176.44078681223854
9.116536832,1.0000123533052256,-176.79710790068467
9.125415936,0.9999951185513056,-177.15316620129488
9.13429504,0.9999780422920467,-177.5090382872711
9.143174144,0.999961818099491,-177.86467911727308
9.152053248,0.9999475512584671,-178.2201244372434
9.160932352,0.9999358207530821,-178.57541720778696
9.169811456,0.9999271724172634,-178.9305721407737
9.17869056,0.9999223286549679,-179.28563853858842
9.187569664,0.999921314583761,-179.6406877616808
9.196448768,0.9999243048708266,-179.99573548387266
9.205327872,0.9999312484788332,179.6491416322406
9.214205952,0.9999415832568662,179.29390059696354
9.223085056,0.9999549429116438,178.93850097188914
9.23196416,0.9999706223807258,178.58289691717482
9.240843264,0.9999876785285395,178.22707620712535
9.249722368,1.0000053331225047,177.87105376432712
9.258601472,1.000022694284114,177.51474716204936
9.267480576,1.0000388111307832,177.15824955525903
9.27635968,1.0000527151774432,176.80150534742106
9.285238784,1.0000638774666917,176.44462366072227
9.294117888,1.000071726287256,176.0876071330964
9.302996992,1.0000754846253643,175.73052089124465
9.311876096,1.0000752665173318,175.3733691600477
9.3207552,1.000071129902839,175.01626895200957
9.32963328,1.000062929658116,174.6592456479447
9.338512384,1.0000514190524314,174.30231677534846
9.347391488,1.0000370408161718,173.94556609503232
9.356270592,1.0000204673522906,173.5890329268676
9.365149696,1.0000027439494001,173.23268417026705
9.3740288,0.9999847545230366,172.87659543695432
9.382907904,0.9999672188113679,172.52074277493404
9.391787008,0.9999513355927144,172.1650828920654
9.400666112,0.9999378890570556,171.80962633273856
9.409545216,0.9999273322959495,171.45432501056106
9.41842432,0.9999205192741547,171.09912457692658
9.427303424,0.9999176664186787,170.7439917209439
9.436182528,0.99991910096987,170.3888606301777
9.445060608,0.9999247581608366,170.03370422841147
9.453939712,0.9999340409696535,169.67843760646045
9.462818816,0.999946691018508,169.32301216332715
9.47169792,0.9999621166001823,168.96741149617185
9.480577024,0.9999795080113852,168.61159570550822
9.489456128,0.9999978970453104,168.25552162053978
9.498335232,1.0000162759473534,167.89922514739214
9.507214336,1.0000337674344657,167.54267085710413
9.51609344,1.0000493614722337,167.18587439069188
9.524972544,1.0000623990233621,166.82889678486072
9.533851648,1.000072085035673,166.47177989917495
9.542730752,1.000077940682566,166.1145718088308
