freq,mag,phase
6.0,1.0005031452495987,4.691523501785869
6.006245376,1.000351059503934,4.4881530155323475
6.01249024,1.0001779207900787,4.286955535398514
6.018735616,0.9999944736171928,4.0881840759320145
6.02498048,0.9998111736328508,3.8919565531719056
6.031225856,0.9996384956856886,3.6980663132419056
6.03747072,0.9994864029114605,3.5063441461454112
6.043716096,0.9993634118883176,3.316511546178549
6.04996096,0.9992768294206353,3.1280815714155423
6.056206336,0.9992313174425348,2.940488817545474
6.0624512,0.9992296787995801,2.7532157695755726
6.068696576,0.9992721267517459,2.565561697081774
6.07494144,0.99935615537335,2.3770477031555877
6.081186816,0.9994769295040581,2.187018941322094
6.08743168,0.9996277274498424,1.9950877466700008
6.093677056,0.9997999024165765,1.8008733201279854
6.09992192,0.9999836237149665,1.6041745017419562
6.106167296,1.000168496210475,1.4048666228236049
6.11241216,1.0003440042355676,1.2030358739177889
6.118657536,1.000499892067041,0.9988784039659373
6.1249024,1.0006275633223076,0.7927224405853076
6.131147776,1.0007196028415744,0.5849390176427663
6.13739264,1.0007707999033038,0.37617620657306095
6.143638016,1.0007780360086205,0.16695031049181616
6.14988288,1.0007410374273602,-0.042158287822093285
6.156128256,1.0006618748257199,-0.25047214374520005
6.16237312,1.0005448609039442,-0.4575499543332976
6.168618496,1.000396913069311,-0.6628304176824112
6.17486336,1.0002261726478692,-0.8659493430437054
6.181108736,1.0000423688883544,-1.0667420377446617
6.1873536,0.9998560165240765,-1.2650049843023095
6.193598976,0.9996777759132304,-1.4608196342424022
6.19984384,0.999517769869048,-1.6543264495146928
6.206089216,0.9993851732227131,-1.8459186626652646
6.21233408,0.9992876621011085,-2.035910609624044
6.218579456,0.9992306759349027,-2.2248937295785804
6.22482432,0.9992176002802943,-2.4134744083514086
6.231069696,0.9992490849608473,-2.6021637961326896
6.23731456,0.9993235476137339,-2.791723676739169
6.243559936,0.9994367748355466,-2.9825828667530567
6.2498048,0.9995822399829711,-3.1752662071324766
6.256050176,0.9997516508868598,-3.3701449322585537
6.26229504,0.9999354712482563,-3.5675734695819177
6.268540416,1.0001230453985552,-3.76758646847817
6.27478528,1.0003039232886393,-3.9701863930169465
6.281030656,1.0004675726763448,-4.175220287686719
6.28727552,1.0006048289560272,-4.382384578175331
6.293520896,1.0007077767842336,-4.591218243110982
6.29976576,1.0007705009766519,-4.801283087495761
6.306011136,1.0007893638826681,-5.011988436800899
6.312256,1.000763521081058,-5.222643818128693
6.318501376,1.0006941555723126,-5.432771606314803
6.32474624,1.0005850791490574,-5.641719184207235
6.330991616,1.0004427697272769,-5.848941395476024
6.33723648,1.00027509167908,-6.054095750681467
6.343481856,1.0000917960348348,-6.256954216136157
6.34972672,0.9999028447241706,-6.45723215446414
6.355972096,0.999719485108161,-6.6550345207026975
6.36221696,0.9995520290542733,-6.850483286002211
6.368462336,0.999409959716235,-7.043849183399777
6.3747072,0.9993013961194912,-7.235481233812741
6.380952576,0.9992327734414878,-7.4260016171894385
6.38719744,0.9992077820441094,-7.6158962425745065
6.393442816,0.9992281249756636,-7.805825745276261
6.39968768,0.9992925819985605,-7.996347375550292
6.405933056,0.9993973760172296,-8.188123229015243
6.41217792,0.9995367158117108,-8.381652239989522
6.418423296,0.9997027458216872,-8.577316267571973
6.42466816,0.9998859238968951,-8.775422706114181
6.430913536,1.0000757038750934,-8.97615509002891
6.4371584,1.0002613509297722,-9.179576973892068
6.443403776,1.000432326996923,-9.38546506218302
6.44964864,1.0005789943528216,-9.59359952781602
6.455894016,1.00069283342932,-9.803615612144613
6.46213888,1.000767278665615,-10.01493648697469
6.468384256,1.0007982814929963,-10.227087965091533
6.47462912,1.0007838132401694,-10.43938104795133
6.480874496,1.0007247062884024,-10.651242551366087
6.48711936,1.0006243614477732,-10.8620589690382
6.493364736,1.000488493928017,-11.071333537471562
6.4996096,1.000324735918829,-11.278575509877106
6.505854976,1.0001422471926473,-11.483512602002902
6.51209984,0.999951649233612,-11.685933466938037
6.518345216,0.9997636256507751,-11.885813549304258
6.52459008,0.9995890743104804,-12.083226071387754
6.530835456,0.9994377118848125,-12.278432526913972
6.53708032,0.9993182562492994,-12.471869465693992
6.543325696,0.9992377641935051,-12.663952191844745
6.54957056,0.9992007280982649,-12.85526601872884
6.555815936,0.9992092704855352,-13.0464684848784
6.5620608,0.9992629361575662,-13.23814617141362
6.568306176,0.9993587949772683,-13.430875912775695
6.57455104,0.9994914456984332,-13.625242764852734
6.580796416,0.999653207968103,-13.821685738286389
6.58704128,0.9998348541595442,-14.020578894568386
6.593286656,1.0000262690582928,-14.222066486223694
6.59953152,1.0002162937387766,-14.426278018222026
6.605776896,1.0003942608987504,-14.6330728580063
6.61202176,1.0005499685248365,-14.842226513520833
6.618267136,1.0006745533130021,-15.053346724786039
6.624512,1.0007609901508647,-15.265950219863392
6.630757376,1.0008041534738883,-15.479544221083728
6.63700224,1.000801642037418,-15.693465544933348
6.643247616,1.0007535467466553,-15.907103795113821
6.64949248,1.0006626046612932,-16.11986408776946
6.655737856,1.0005338840646232,-16.331149727588326
6.66198272,1.0003747144485546,-16.54054943827497
6.668228096,1.0001941240813546,-16.747656778951992
6.67447296,1.00000213518069,-16.952262884838053
6.680718336,0.9998101914637713,-17.154272488991225
6.6869632,0.9996287670697533,-17.353749909653928
6.693208576,0.9994684668241969,-17.550940810337785
6.69945344,0.9993382936915832,-17.746210155900194
6.705698816,0.9992458742054916,-17.93996683025086
6.71194368,0.9991964388260027,-18.132813891178543
6.718189056,0.9991927810107385,-18.32534926554296
6.72443392,0.9992352927418315,-18.518163602650375
6.730679296,0.9993214646440846,-18.711971132414646
6.73692416,0.9994463848076656,-18.907278090944963
6.743169536,0.9996031542220577,-19.104588969177044
6.7494144,0.9997828288617977,-19.30425403221915
6.755659776,0.9999749088906832,-19.50654774176109
6.76190464,1.0001687982257477,-19.711553183977966
6.768150016,1.0003533162569456,-19.919215137691022
6.77439488,1.0005178849994993,-20.129335253289803
6.780640256,1.0006532220139666,-20.341597921719874
6.78688512,1.0007515118751547,-20.555504423278133
6.793130496,1.0008071996604129,-20.770568157099994
6.79937536,1.00081707826028,-20.98609633351082
6.805620736,1.0007805474451141,-21.20156601061913
6.8118656,1.00069961376779,-21.41623909328908
6.818110976,1.0005787529071684,-21.629612262153668
6.82435584,1.000425018578567,-21.841179915898156
6.830601216,1.0002470001250532,-22.05051998772202
6.83684608,1.000054633936528,-22.257387906896984
6.843091456,0.999859248540858,-22.461588299523584
6.84933632,0.9996714891985715,-22.663262731540136
6.855581696,0.9995025036322188,-22.86246622506355
6.86182656,0.9993618322734539,-23.05968023187991
6.868071936,0.9992573178323573,-23.25519697688448
6.8743168,0.9991952278630325,-23.44963449753155
6.880562176,0.9991788369416652,-23.643629220543758
6.88680704,0.9992096219281787,-23.837722601114187
6.893052416,0.9992854237705036,-24.032616649623165
6.89929728,0.9994021010747979,-24.228890351440025
6.905542656,0.9995530387081318,-24.427067831941766
6.91178752,0.9997297601947975,-24.62757616278642
6.918032896,0.9999219619266224,-24.830681798692865
6.92427776,1.0001189453885297,-25.036521039485088
6.930523136,1.0003094527961376,-25.245077793432113
6.936768,1.000482637750149,-25.45620408332864
6.943013376,1.000628349202137,-25.66958825304677
6.94925824,1.0007387329266795,-25.884793819724102
6.955503616,1.0008071674591799,-26.101300890443895
6.96174848,1.0008297800284294,-26.31849137759634
6.967993856,1.0008053834239217,-26.535764794875032
6.97423872,1.0007351016628565,-26.752438908164212
6.980484096,1.00062308245111,-26.967905270417123
6.98672896,1.0004754506802218,-27.18166295097901
6.992974336,1.0003006799555323,-27.39326408006768
6.9992192,1.0001088224918238,-27.602423651386978
7.005464576,0.9999105834968316,-27.80892611949006
7.01170944,0.9997172548612077,-28.012840600481763
7.017954816,0.999539773389087,-28.21424429391885
7.02419968,0.9993886928172052,-28.413428082946595
7.030445056,0.9992721650656904,-28.610806743825243
7.03668992,0.9991970967628878,-28.806960294401502
7.042935296,0.9991679123057416,-29.002431846473346
7.04918016,0.9991861670678259,-29.197894625500645
7.055425536,0.9992508385270247,-29.393936540297243
7.0616704,0.9993583955731009,-29.591265785000587
7.067915776,0.9995027066046506,-29.790404321112426
7.07416064,0.9996756502238017,-29.991777013415366
7.080406016,0.9998672386439614,-30.195681087066344
7.08665088,1.000066705545545,-30.40237126198826
7.092896256,1.0002625686150353,-30.61184016112077
7.09914112,1.000443740482354,-30.823967652822144
7.105386496,1.0005999444025229,-31.038491249924434
7.11163136,1.0007223561786964,-31.254965577287976
7.117876736,1.0008036724173497,-31.47295639138642
7.1241216,1.000839481845128,-31.691769798747416
7.130366976,1.0008276774361873,-31.910848547788554
7.13661184,1.0007688999806361,-32.129484776031795
7.142857216,1.0006663349044156,-32.34710895029474
7.14910208,1.0005258229709246,-32.563102220735914
7.155347456,1.0003553844137452,-32.77702957771493
7.16159232,1.0001645266790629,-32.98853945108083
7.167837696,0.9999641970624701,-33.19744272993376
7.17408256,0.9997657189802374,-33.40365157741244
7.180327936,0.9995805267329579,-33.607264664499105
7.1865728,0.9994190016883835,-33.808573345808554
7.192818176,0.999290699788183,-34.00792467431085
7.19906304,0.999202565265313,-34.205825732494056
7.205308416,0.999159912173221,-34.40290962300446
7.21155328,0.999165093517005,-34.599775163586585
7.217798656,0.9992181618046838,-34.79711686875578
7.22404352,0.9993159313787011,-34.99554050319362
7.230288896,0.9994526860238351,-35.1956494111594
7.23653376,0.9996208019335451,-35.39793780896976
7.242779136,0.9998108820209626,-35.60273563385822
7.249024,1.0000120177186564,-35.8102820497408
7.255269376,1.0002127345823921,-36.02065307849721
7.26151424,1.0004015165932694,-36.233801987674696
7.267759616,1.000567830617298,-36.44942985434735
7.27400448,1.0007022424633116,-36.6671891020329
7.280249856,1.0007967777987827,-36.88659781265754
7.28649472,1.0008460549905094,-37.10705972250999
7.292740096,1.0008474421382794,-37.32792115992485
7.29898496,1.0008007838931279,-37.54857772460935
7.305230336,1.0007084575601373,-37.76835713883283
7.3114752,1.0005759042882403,-37.98663423990707
7.317720576,1.0004104673495235,-38.202945691842345
7.32396544,1.0002216248019717,-38.41687967315259
7.330210816,1.00002005974233,-38.62819147393039
7.33645568,0.9998172061784398,-38.83680421159479
7.342701056,0.9996244591837893,-39.04273782332212
7.34894592,0.9994529749884216,-39.24621743528205
7.355191296,0.999312771981893,-39.44761769594728
7.36143616,0.9992114487606334,-39.64744737733385
7.367681536,0.9991551372653379,-39.84617463971752
7.3739264,0.9991469354446036,-40.0445846030291
7.380171776,0.9991874948398779,-40.24323885521688
7.38641664,0.9992743416144408,-40.4428264312821
7.392662016,0.9994027162954418,-40.64401021301734
7.39890688,0.9995653958089815,-40.84719825336479
7.405152256,0.9997530345560146,-41.05290162509783
7.41139712,0.9999550979852531,-41.26131888400131
7.417642496,1.0001600242679853,-41.47260731601536
7.42388736,1.0003559764111565,-41.68675393792718
7.430132736,1.000532147396096,-41.90352011758255
7.4363776,1.0006782615087972,-42.1225363954841
7.442622976,1.0007859358065374,-42.343385611011726
7.44886784,1.0008492000103364,-42.565498320948834
7.455113216,1.0008642498860079,-42.78818340657344
7.46135808,1.0008302998644627,-43.01081544684326
7.467603456,1.0007492703376681,-43.232745869866996
7.47384832,1.0006254706446827,-43.45333045428257
7.480093696,1.0004661400118762,-43.67205743345167
7.48633856,1.0002802539337685,-43.8884751760004
7.492583936,1.0000780991210902,-44.10229133204348
7.4988288,0.999871413891515,-44.31337173727349
7.505074176,0.9996718882036124,-44.521702291563706
7.51131904,0.9994910290465995,-44.7274666996502
7.517564416,0.999338832603545,-44.93103978395221
7.52380928,0.99922425697626,-45.13280565423951
7.530054656,0.9991538119804848,-45.33336720422684
7.53629952,0.9991317155157408,-45.53332860675602
7.542544896,0.9991590738921997,-45.733404408622555
7.54878976,0.9992343248086271,-45.934231065084894
7.555035136,0.9993534991721822,-46.136460934903745
7.56128,0.9995096438630207,-46.34067588939608
7.567525376,0.9996939346519562,-46.54728710385988
7.57377024,0.9998960903754038,-46.75661857538627
7.580015616,1.0001042339036523,-46.96886085973713
7.58626048,1.0003068884023036,-47.18396731850717
7.592505856,1.000492425719131,-47.40181487953108
7.59875072,1.0006501249648194,-47.62208578237508
7.604996096,1.0007711701078368,-47.84437748151943
7.611241472,1.0008485702954872,-48.06806064646385
7.617486336,1.000877842813265,-48.292617743935914
7.623731712,1.000857449704721,-48.517227557485505
7.629976576,1.0007883144144403,-48.741355320766885
7.636221952,1.0006742285319405,-48.964271821604164
7.642466816,1.0005219885617056,-49.18543853351679
7.648712192,1.000339756626899,-49.40436639754326
7.654957056,1.000138216005298,-49.62075919970379
7.661202432,0.9999284796882042,-49.834366438746166
7.667447296,0.9997227094695007,-50.04520803081406
7.673692672,0.9995326674887672,-50.25335380391702
7.679937536,0.9993688734894431,-50.45914503788617
7.686182912,0.9992410244026013,-50.66297330830901
7.692427776,0.9991564083898122,-50.865405129082106
7.698673152,0.9991196420317862,-51.06706000146182
7.704918016,0.9991331601359419,-51.268617294587806
7.711163392,0.9991961803618657,-51.47077885675224
7.717408256,0.9993050174739988,-51.674172630058045
7.723653632,0.9994537657520607,-51.87938708328817
7.729898496,0.9996337091295675,-52.086960512035816
7.736143872,0.999834888906657,-52.29721660229293
7.742388736,1.0000457673928538,-52.51037049042335
7.748634112,1.000254405639362,-52.726467853700505
7.754878976,1.0004487500502324,-52.9454392131592
7.761124352,1.0006178539996924,-53.16694144344875
7.767369216,1.000752208255408,-53.39062175546003
7.773614592,1.0008440514740407,-53.61593040465306
7.779859456,1.0008880164412337,-53.842241777060075
7.786104832,1.0008817225779343,-54.068860414675264
7.792349696,1.0008253320430782,-54.29518496572468
7.798595072,1.0007221242478745,-54.52043788313318
7.804839936,1.000577664014237,-54.74410245257121
7.811085312,1.0004003421805134,-54.965592041617526
7.817330176,1.0002000913646698,-55.18460810775769
7.823575552,0.9999883451805454,-55.40081373143228
7.829820416,0.9997770582477002,-55.6142038189386
7.836065792,0.9995781510900406,-55.82480254291144
7.842310656,0.9994032823246634,-56.032947058328126
7.848556032,0.9992619879292339,-56.23895831748071
7.854800896,0.9991627913002588,-56.44334995816398
7.861046272,0.9991112244795103,-56.646789406037094
7.867291136,0.999110174140482,-56.849912025877714
7.873536512,0.9991599934079861,-57.053425907778546
7.879781376,0.9992576583954428,-57.25803346444579
7.886026752,0.9993978668390217,-57.46436133653666
7.892271616,0.9995726254611608,-57.672895888773525
7.898516992,0.9997718366803309,-57.88408940815056
7.904761856,0.9999843649957922,-58.09817958983117
7.911007232,1.0001982675252286,-58.315273963836766
7.917252096,1.0004011077731647,-58.53529174166559
7.923497472,1.00058135629583,-58.75804378241945
7.929742336,1.000728986748316,-58.983098590945424
7.935987712,1.0008353369262202,-59.209965908348565
7.942232576,1.0008944504300357,-59.43807003525405
7.948477952,1.0009028895691847,-59.666694011392515
7.954722816,1.000860061164153,-59.895170366086795
7.960968192,1.0007684948957654,-60.12278962776382
7.967213056,1.0006331242729847,-60.348950045459155
7.973458432,1.0004616446094436,-60.573080584650974
7.979703296,1.000263886062233,-60.79473835831459
7.985948672,1.0000509584814263,-61.013601090364
7.992193536,0.9998347122513519,-61.22964047812383
7.998438912,0.9996278861251199,-61.44284534487971
8.004683776,0.999441924507948,-61.653374628459275
8.010929152,0.9992875472145927,-61.86162730419114
8.017174016,0.9991735713487911,-62.06811645109382
8.023419392,0.9991067065641607,-62.27343134049234
8.029664256,0.9990905638142917,-62.47819579066941
8.035909632,0.999126351744683,-62.68315882936308
8.042154496,0.9992119540713286,-62.88904960213685
8.048399872,0.9993424912884482,-63.096516538967045
8.054644736,0.9995107936844719,-63.30605834091665
8.060890112,0.9997070940707004,-63.51819454429366
8.067134976,0.9999205077461245,-63.733220479831125
8.073380352,1.0001387199472411,-63.951283939446924
8.079625216,1.0003493792335956,-64.17239689248717
8.085870592,1.0005404511700675,-64.39630134644901
8.092115456,1.0007011133701333,-64.6227004619674
8.098360832,1.0008222912542,-64.85114977899508
8.104605696,1.0008967789957357,-65.08100928600567
8.110851072,1.0009206069969083,-65.31160490314588
8.117095936,1.0008922886253482,-65.54225955051972
8.123341312,1.000813328388616,-65.77225810498987
8.129586176,1.0006881111504322,-66.00092318000017
8.135831552,1.0005235877361527,-66.22766279096076
8.142076416,1.0003292454351025,-66.45204386339996
8.148321792,1.000116051675623,-66.67368751949141
8.154566656,0.9998959295731211,-66.89241944931862
8.160812032,0.9996816057709449,-67.10821196586579
8.167056896,0.9994849721507398,-67.3212912899993
8.173302272,0.9993176944560364,-67.53189629716249
8.179547136,0.9991889833606767,-67.7405738026808
8.185792512,0.9991062731864565,-67.94780772919138
8.192037376,0.9990745321053192,-68.15433700619924
8.198282752,0.9990953629102924,-68.36084521976233
8.204527616,0.9991677953923069,-68.56807938022263
8.210772992,0.9992878014317117,-68.77668154058475
8.217017856,0.9994485513346283,-68.98728235686201
8.223263232,0.9996408386792223,-69.20041088887834
8.229508096,0.9998539622987869,-69.41635820402543
8.235753472,1.0000757509626212,-69.63540928277718
8.241998336,1.0002934371286187,-69.85755970584793
8.248243712,1.0004948796746416,-70.08261890528853
8.254488576,1.000668455398255,-70.31036865531773
8.260733952,1.0008043764024201,-70.54028569054199
8.266978816,1.0008949137310283,-70.77186823237844
8.273224192,1.000934683550877,-71.00440812552333
8.279469056,1.0009216016218552,-71.2372277503321
8.285714432,1.0008562067806677,-71.46956723214893
8.291959296,1.0007420081013405,-71.70079828379139
8.298204672,1.0005858014791487,-71.9302081974093
8.304449536,1.0003960809391221,-72.15731832701584
8.310694912,1.0001835468424183,-72.38176090043923
8.316939776,0.999960544090516,-72.60327300990899
8.323185152,0.9997393987008348,-72.8218258396127
8.329430016,0.9995328216134313,-73.0374826530334
8.335675392,0.9993526907845095,-73.25055392204987
8.341920256,0.9992091657660802,-73.46146107294341
8.348165632,0.9991104668535129,-73.67075209004679
8.354410496,0.9990623730605409,-73.8791124709121
8.360655872,0.9990675917679451,-74.08724115640561
8.366900736,0.9991259203349458,-74.29588444211701
8.373146112,0.9992340406545803,-74.50571815898168
8.379390976,0.9993862353978333,-74.71739062002551
8.385636352,0.9995733150299358,-74.93151564713489
8.391881216,0.9997851041236067,-75.1484438860267
8.398126592,1.0000093511864878,-75.36843108247858
8.404371456,1.0002335506038218,-75.59152969966048
8.410616832,1.000444640730783,-75.8177818936573
8.416861696,1.0006308382263365,-76.04678253633864
8.423107072,1.000781615689267,-76.27820734830172
8.429351936,1.00088831085503,-76.51146691242727
8.435597312,1.0009445931010899,-76.74590942362182
8.441842176,1.000947493878678,-76.98085884174426
8.448087552,1.000896560500242,-77.21557433470792
8.454332416,1.0007948273191212,-77.44928922815319
8.460577792,1.0006477790509118,-77.68139616447255
8.466822656,1.0004639689801864,-77.91129460164244
8.473068032,1.0002533974560115,-78.13858204831018
8.479312896,1.0000282967034162,-78.36295637550681
8.485558272,0.9998012413791975,-78.58429495079552
8.491803136,0.9995852454843872,-78.80266296738498
8.498048512,0.9993925805831403,-79.01826920547946
8.504293376,0.9992342634924543,-79.23152644213683
