freq,mag,phase
6.0,1.0001388785298795,-147.14914120913522
6.00459776,1.0001231601248441,-147.40719054181505
6.00919552,1.000100495960371,-147.66500682775853
6.01379328,1.0000722244762041,-147.92244113485066
6.01839104,1.0000399403124833,-148.17947046506907
6.022988288,1.0000057407186431,-148.43601595704558
6.027586048,0.9999713395329465,-148.69209598111297
6.032183808,0.9999390383852186,-148.94773124455187
6.036781568,0.9999105709927952,-149.20290851585466
6.041379328,0.999887745413689,-149.45774626937876
6.045977088,0.9998717807916183,-149.7123005984682
6.050574848,0.9998637438565113,-149.96671143233948
6.055172608,0.9998641099485437,-150.22105740828465
6.059770368,0.9998726803194666,-150.47546659641603
6.064367616,0.9998891322666774,-150.73005610205414
6.068965376,0.9999124358393201,-150.98492164850066
6.073563136,0.9999412441622838,-151.24016077330134
6.078160896,0.9999738253751354,-151.49580893240946
6.082758656,1.000008308720022,-151.75196271714844
6.087356416,1.000042601182474,-152.0085660042106
6.091954176,1.0000746652129189,-152.26565967726603
6.096551936,1.000102746793097,-152.52317552082545
6.101149184,1.0001250837305498,-152.78104568719777
6.105746944,1.0001404547343418,-153.03917848063602
6.110344704,1.0001478086228381,-153.29748355848838
6.114942464,1.0001467691321888,-153.5558212344079
6.119540224,1.0001373995731035,-153.81409634365036
6.124137984,1.0001202690914872,-154.07216597429954
6.128735744,1.0000963660491624,-154.32998088529448
6.133333504,1.0000671399399883,-154.587409271326
6.137931264,1.0000342083166833,-154.8444045632045
6.142528512,0.9999996597759403,-155.10093140763627
6.147126272,0.999965422992134,-155.35699531998404
6.151724032,0.9999335212721983,-155.6125797091293
6.156321792,0.9999058463333111,-155.8677655416802
6.160919552,0.999884071599354,-156.12257894509676
6.165517312,0.999869423358452,-156.3771465941246
6.170115072,0.9998627473587004,-156.63154627271203
6.174712832,0.9998646190920841,-156.8859553679311
6.179310592,0.9998746182454619,-157.14041220452393
6.18390784,0.9998924339767968,-157.39510213194973
6.1885056,0.9999169613114862,-157.65007808506994
6.19310336,0.9999466328179091,-157.90543458372682
6.19770112,0.9999798120193556,-158.1612176525601
6.20229888,1.0000146220351462,-158.41746556197018
6.20689664,1.0000488447541953,-158.67422346915947
6.2114944,1.0000804395291165,-158.9314765894173
6.21609216,1.000107754461276,-159.1890857139509
6.220689408,1.0001289784850877,-159.44704771078122
6.225287168,1.0001429937204946,-159.70528325853653
6.229884928,1.0001488509674854,-159.96364381217623
6.234482688,1.0001463754533533,-160.22202238696508
6.239080448,1.0001355919987542,-160.4803151552578
6.243678208,1.0001171397597095,-160.73842581931703
6.248275968,1.000091963960815,-160.99621169761582
6.252873728,1.0000619427334172,-161.25364008633397
6.257471488,1.0000284167176743,-161.5105725937679
6.262068736,0.9999935901320559,-161.7670716930348
6.266666496,0.9999595254280451,-162.0230599062406
6.271264256,0.9999280776482539,-162.27861379009502
6.275862016,0.9999011811203817,-162.53374092821568
6.280459776,0.9998805457481859,-162.78854655538905
6.285057536,0.9998671682723741,-163.04311038125374
6.289655296,0.9998620276741126,-163.2975549120704
6.294253056,0.9998652286233779,-163.55197372774964
6.298850816,0.9998768453225645,-163.80649663027737
6.303448064,0.9998959775563572,-164.06123316202851
6.308045824,0.9999215886176405,-164.31630343633338
6.312643584,0.9999522281264615,-164.57176833533745
6.317241344,0.9999859738147402,-164.82768968283966
6.321839104,1.0000208575231506,-165.08405254537988
6.326436864,1.0000549709450433,-165.34092444455666
6.331034624,1.0000861137797015,-165.598266292824
6.335632384,1.0001124547051006,-165.85598258199747
6.340229632,1.0001326874137475,-166.11403600574386
6.344827392,1.0001453175276853,-166.3723451904059
6.349425152,1.0001497823624776,-166.63076181467378
6.354022912,1.000145752533544,-166.8891743704865
6.358620672,1.000133524576541,-167.14747423766565
6.363218432,1.0001136372371553,-167.4055595404985
6.367816192,1.0000874810558347,-167.66331968796678
6.372413952,1.0000565395583563,-167.92064070091328
6.377011712,1.0000225819719806,-168.17756875833092
6.38160896,0.999987598042182,-168.43400505267755
6.38620672,0.9999535664467436,-168.68992988490507
6.39080448,0.9999227129081719,-168.94542522608862
6.39540224,0.9998967172168797,-169.20050537024153
6.4,0.9998770836462479,-169.45527560820454
6.40459776,0.9998651306929801,-169.70981308873542
6.40919552,0.9998614599878617,-169.96425718334072
6.41379328,0.9998662388688401,-170.21872457451684
6.41839104,0.9998791921226722,-170.47328905166643
6.422988288,0.9998996766883518,-170.72807725129422
6.427586048,0.9999263736970297,-170.9832134030933
6.432183808,0.9999578292967313,-171.2387757544305
6.436781568,0.9999921137844054,-171.49478192508897
6.441379328,1.000027233719907,-171.75125528475616
6.445977088,1.0000610012632074,-172.0082300145002
6.450574848,1.0000915330005578,-172.2656440828514
6.455172608,1.0001171514742189,-172.52347016856152
6.459770368,1.0001360597943876,-172.78159676162284
6.464367616,1.0001473822422864,-173.03994419596287
6.468965376,1.000150380425358,-173.29838329517497
6.473563136,1.0001448728205946,-173.5568166221655
6.478160896,1.0001311288335883,-173.81511344823446
6.482758656,1.0001100050575695,-174.0731259069292
6.487356416,1.000082789375877,-174.3308434877212
6.491954176,1.0000509245989073,-174.58815783949973
6.496551936,1.0000164766237603,-174.84499718931357
6.501149184,0.9999813132637894,-175.10132442332176
6.505746944,0.9999475950836136,-175.35718067587393
6.510344704,0.9999173293716755,-175.61259466529583
6.514942464,0.9998923222170151,-175.8676173970109
6.519540224,0.9998739204313348,-176.1223462157155
6.524137984,0.9998632864464354,-176.3768553198954
6.528735744,0.9998611140700198,-176.63128981604896
6.533333504,0.9998674721245114,-176.8857458110768
6.537931264,0.999881845203456,-177.1403397961087
6.542528512,0.9999036795675953,-177.3952082367148
6.547126272,0.999931453597305,-177.65040032005155
6.551724032,0.9999636301742959,-177.90601607447692
6.556321792,0.9999982651454874,-178.16208860771326
6.560919552,1.0000334094193002,-178.41868559250503
6.565517312,1.0000669526354615,-178.6757383745311
6.570115072,1.0000969780519955,-178.93325228604527
6.574712832,1.000121479559149,-179.19111909941324
6.579310592,1.000139300260042,-179.44929410466767
6.58390784,1.0001492730909318,-179.70767966826713
6.5885056,1.0001506168959289,-179.9661279484161
6.59310336,1.000143698158522,179.77545805970652
6.59770112,1.000128492024371,179.5171870815386
6.60229888,1.000106004874245,179.2591948979967
6.60689664,1.0000778162214554,179.0015490177822
6.6114944,1.0000452423117592,178.7443247301176
6.61609216,1.0000103537781893,178.48759036230717
6.620689408,0.9999751261054068,178.2313305114022
6.625287168,0.9999418709854493,177.97557386211074
6.629884928,0.9999121404194,177.7202296413579
6.634482688,0.9998880983681694,177.4653026030174
6.639080448,0.9998709801992581,177.21062692557197
6.643678208,0.9998617283537967,176.95615225383128
6.648275968,0.9998609544362199,176.70175857327493
6.652873728,0.9998687338851008,176.44730500939406
6.657471488,0.9998846705666974,176.19268347606013
6.662068736,0.9999077216139571,175.93780455144523
6.666666496,0.9999365504823748,175.6825500289218
6.671264256,0.9999694641071217,175.42686833863988
6.675862016,1.0000045434307834,175.17070840711045
6.680459776,1.0000397233878482,174.91404461675234
6.685057536,1.000072894066298,174.65691834693814
6.689655296,1.0001021850662384,174.39936114697218
6.694253056,1.0001256906166318,174.14141658099774
6.698850816,1.000142291990475,173.88321051053902
6.703448064,1.0001507999392312,173.62482142268684
6.708045824,1.0001506949970493,173.36636811628713
6.712643584,1.0001422482470244,173.10797413287062
6.717241344,1.0001256588671852,172.84977768511195
6.721839104,1.0001019787052563,172.59183952955618
6.726436864,1.0000726485200706,172.33427767926722
6.731034624,1.0000394630528258,172.0771493021257
6.735632384,1.0000040755298993,171.82053834055392
6.740229632,0.9999690013546707,171.5643965036079
6.744827392,0.9999359418231065,171.30871752140413
6.749425152,0.9999070756311127,171.0534994785211
6.754022912,0.9998840609119365,170.79862803756365
6.758620672,0.9998680991747799,170.5440352326091
6.763218432,0.9998603040162005,170.28960996227494
6.767816192,0.9998610801683571,170.03526774062777
6.772413952,0.9998703683461453,169.78081098597144
6.777011712,0.9998878359985586,169.52618354592656
6.78160896,0.99991207198385,169.27127530934888
6.78620672,0.9999417744926029,169.01598860544325
6.79080448,0.9999754508252092,168.7602358296251
6.79540224,1.000010806503735,168.50402445620645
6.8,1.0000459393880656,168.24731804012345
6.80459776,1.0000787635118837,167.9901307414103
6.80919552,1.000107244036165,167.73252412355222
6.81379328,1.0001297854023576,167.47454942570826
6.81839104,1.0001450444875322,167.2163270715575
6.822988288,1.0001520296020354,166.95794002399128
6.827586048,1.0001505435371167,166.69950849729582
6.832183808,1.000140437761038,166.44116071260083
6.836781568,1.0001224613102673,166.1830203867361
6.841379328,1.0000976049953136,165.92518968093995
6.845977088,1.0000673608107644,165.6677347086143
6.850574848,1.000033403278657,165.41073239915283
6.855172608,0.9999978375935826,165.154216275942
6.859770368,0.9999627319486017,164.8982013484828
6.864367616,0.9999301720747467,164.64264849330021
6.868965376,0.9999020285729888,164.3875419585613
6.873563136,0.9998801335609697,164.13276426574956
6.878160896,0.999865435635836,163.87825926116278
6.882758656,0.9998591717091037,163.6239069187115
6.887356416,0.9998614885719889,163.3695781050739
6.891954176,0.9998723383814719,163.1151647515328
6.896551936,0.99989092758183,162.86054139985245
6.901149184,0.9999165213979456,162.60561256195615
6.905746944,0.9999473322969501,162.35028555159386
6.910344704,0.9999815450564122,162.09452041889787
6.914942464,1.000017194972888,161.83824891195258
6.919540224,1.0000522546653694,161.58150170145294
6.924137984,1.0000845671528997,161.32427434452055
6.928735744,1.0001121923734932,161.06662933487158
6.933333504,1.0001337404133668,160.80864749752948
6.937931264,1.0001476364809998,160.55040312858767
6.942528512,1.0001531423665277,160.292033655416
6.947126272,1.0001501168424909,160.03365453184261
6.951724032,1.000138488347379,159.7753742142118
6.956321792,1.000119063975763,159.51731700637507
6.960919552,1.000093065426934,159.2595777789925
6.965517312,1.0000618114205533,159.0022335782869
6.970115072,1.000027271258889,158.74536693522083
6.974712832,0.9999914918803895,158.48899141211646
6.979310592,0.9999565925940251,158.23310243852686
6.98390784,0.9999245503086592,157.97769066381468
6.9885056,0.9998971985193453,157.72268816805658
6.99310336,0.9998762911383655,157.46803394485053
6.99770112,0.9998630803039994,157.21363404034818
7.00229888,0.9998582430764057,156.9593550863127
7.00689664,0.9998621067679686,156.70507336048843
7.0114944,0.9998744926599791,156.45071149621313
7.01609216,0.9998944967546108,156.1960778067562
7.020689408,0.9999211313039505,155.94114059883736
7.025287168,0.9999528549275326,155.68582257093024
7.029884928,0.9999876459766615,155.43002597640432
7.034482688,1.0000235707589842,155.17373339133746
7.039080448,1.0000584095743206,154.9169288477979
7.043678208,1.0000902045234434,154.6596746817515
7.048275968,1.0001170271938005,154.4020173415111
7.052873728,1.0001374201127484,154.14402988706192
7.057471488,1.0001498637128639,153.88579603724352
7.062068736,1.0001540154701436,153.6274816367487
7.066666496,1.0001493082536526,153.36914217059726
7.071264256,1.0001362506649654,153.1109504647478
7.075862016,1.0001154721394996,152.85298529095408
7.080459776,1.0000882873645887,152.5953587716012
7.085057536,1.000056143092221,152.33815864891403
7.089655296,1.0000211038701372,152.08142620472137
7.094253056,0.9999850909551424,151.82519705855904
7.098850816,0.9999504821100965,151.56945930872345
7.103448064,0.9999188736012523,151.3142003502019
7.108045824,0.9998925289301354,151.05934051335234
7.112643584,0.9998727546785813,150.80481212588936
7.117241344,0.9998608817046749,150.55049994531132
7.121839104,0.9998576117429542,150.2963017885583
7.126436864,0.9998630371433238,150.04209107542107
7.131034624,0.9998767730420688,149.7877379204706
7.135632384,0.9998983666742931,149.53316981451678
7.140229632,0.9999259923471037,149.27823446701876
7.144827392,0.9999585925956228,149.02288815074914
7.149425152,0.9999939193299482,148.76706813929482
7.154022912,1.0000299643220862,148.5107411197804
7.158620672,1.0000645589634085,148.25394592333453
7.163218432,1.0000957878442955,147.9966883154956
7.167816192,1.0001216222832168,147.7390204991553
7.172413952,1.000140802598068,147.4810171653142
7.177011712,1.0001519362165376,147.22283697509206
7.18160896,1.0001544918316412,146.96456924549148
7.18620672,1.0001482901427763,146.70631297838318
7.19080448,1.0001337325775617,146.4482066678403
7.19540224,1.0001116889215749,146.1903637212517
7.2,1.0000831922414193,145.93288150412135
7.20459776,1.0000503433958674,145.67581467760672
7.20919552,1.0000148190403308,145.41925386407684
7.21379328,0.9999787351535613,145.16318116827568
7.21839104,0.9999442022027755,144.9076055462358
7.222988288,0.9999132834453315,144.6524945037913
7.227586048,0.9998878104222279,144.39777837867786
7.232183808,0.9998693680912311,144.14336987324916
7.236781568,0.9998589206733107,143.88916469759985
7.241379328,0.999857048456241,143.6350631943952
7.245977088,0.9998641458942424,143.38093153245313
7.250574848,0.9998794335282258,143.12666088992486
7.255172608,0.9999021228290425,142.87208837225705
7.259770368,0.9999310874015626,142.61717510429392
7.264367616,0.9999644043621926,142.36182372595698
7.268965376,1.0000002336273905,142.10599780190304
7.273563136,1.0000362849458866,141.849681612342
7.278160896,1.000070654861876,141.59285694127854
7.282758656,1.0001011569102514,141.33557341794108
7.287356416,1.000126225575035,141.07794730349264
7.291954176,1.0001440615873087,140.8199826682022
7.296551936,1.000153741923028,140.56182474849138
7.301149184,1.0001547163458555,140.30361553116492
7.305746944,1.000146977555107,140.04546675759806
7.310344704,1.000130904932528,139.78746147108828
7.314942464,1.000107512973144,139.5297648883157
7.319540224,1.0000780914083534,139.2724063057591
7.324137984,1.0000443798373915,139.0155162167829
7.328735744,1.0000083583761574,138.75910490350293
7.333333504,0.999972162825315,138.50321563768523
7.337931264,0.9999380910388964,138.24781596605231
7.342528512,0.9999078570462729,137.99287278070872
7.347126272,0.9998834456197193,137.73831295126433
7.351724032,0.9998661503599482,137.48406959910213
7.356321792,0.9998571700260426,137.22996868499106
7.360919552,0.9998569559774952,136.9759767497576
7.365517312,0.9998654757807645,136.7219215148413
7.370115072,0.9998822734490888,136.46769420959902
7.374712832,0.9999063303054663,136.2131670103489
7.379310592,0.9999363035444906,135.95826213588575
7.38390784,0.9999704630369347,135.70294418702974
7.3885056,1.00000657459532,135.44710375371938
7.39310336,1.0000427424352585,135.19078118857612
7.39770112,1.000076722031109,134.93397134606496
7.40229888,1.0001065185242655,134.67671508568006
7.40689664,1.000130414189559,134.41907786830456
7.4114944,1.0001470803921209,134.16116711772253
7.41609216,1.0001552842188786,133.90307688467837
7.420689408,1.0001547964264934,133.64494718562187
7.425287168,1.0001453589190696,133.38688397844805
7.429884928,1.000127923288689,133.12902910095875
7.434482688,1.0001031487483831,132.87144996365325
7.439080448,1.00007269142613,132.61426304833702
7.443678208,1.0000382888787127,132.35754339980107
7.448275968,1.0000018609460182,132.10132499089858
7.452873728,0.999965720392334,131.845618502162
7.457471488,0.9999319638374065,131.59039760960152
7.462068736,0.9999024542846792,131.33562761748297
7.466666496,0.9998790332775306,131.0812320737783
7.471264256,0.9998632483678448,130.82712057911115
7.475862016,0.9998556607152328,130.57317318860402
7.480459776,0.9998569462550148,130.31927576128385
7.485057536,0.9998670132331371,130.06528664595774
7.489655296,0.9998853642506471,129.8111345270225
7.494253056,0.9999107375658299,129.5566608059519
7.498850816,0.9999417455675211,129.30180654239024
7.503448064,0.9999764764177149,129.04648384039353
7.508045824,1.0000130114443362,128.79066577175425
7.512643584,1.0000491048680593,128.53434309141826
7.517241344,1.000082732954131,128.2775421436065
7.521839104,1.0001117654219958,128.02031319266197
7.526436864,1.0001346305603194,127.76271328363106
7.531034624,1.0001497842065987,127.50485169330423
7.535632384,1.0001566016925723,127.24684592035321
7.540229632,1.000154515344145,126.98880866052887
7.544827392,1.000143600118925,126.73085277564634
7.549425152,1.0001245922021764,126.47313382299421
7.554022912,1.0000985405508274,126.21572095679775
7.558620672,1.0000671323017811,125.95870760017199
7.563218432,1.000032051371785,125.70217943640667
7.567816192,0.999995330080684,125.4461541076656
7.572413952,0.9999592524717381,125.19063680470211
7.577011712,0.999925959326838,124.93561160363188
7.58160896,0.9998972382366824,124.68102917118479
7.58620672,0.9998749976692087,124.42679648754114
7.59080448,0.9998604829169454,124.17283705360865
7.59540224,0.9998544968467853,123.91902366708975
7.6,0.9998573696293916,123.66524132135731
7.60459776,0.9998690070646707,123.41134776436672
7.60919552,0.9998887375352575,123.15726475425085
7.61379328,0.9999153374431471,122.90283712886018
7.61839104,0.9999473497903463,122.64801620092848
7.622988288,0.99998271689342,122.39272160797147
7.627586048,1.0000195864805508,122.13694504918666
7.632183808,1.0000555548815433,121.88063168661711
7.636781568,1.0000886072535946,121.62384340092741
7.641379328,1.0001168221583874,121.36664397477708
7.645977088,1.0001385436421717,121.10908923796767
7.650574848,1.0001524017448382,120.85130237804515
7.655172608,1.0001576747235728,120.5933778337245
7.659770368,1.0001540012026013,120.33544756767523
7.664367616,1.0001415225547452,120.07762898801037
7.668965376,1.000120955380701,119.82003918261587
7.673563136,1.000093791343356,119.56279509429632
7.678160896,1.0000613501079159,119.30596669068072
7.682758656,1.000025643295342,119.04963580846187
7.687356416,0.9999887282305037,118.7938159468776
7.691954176,0.9999527814208986,118.53850725035622
7.696551936,0.9999199810790403,118.28369075024295
7.701149184,0.9998921474348751,118.02928152633207
7.705746944,0.9998710940995417,117.7752515940226
7.710344704,0.9998578590846308,117.52144421283491
7.714942464,0.9998534484491811,117.26776183352844
7.719540224,0.9998579378713615,117.01409768760355
7.724137984,0.99987114146597,116.76031155469138
7.728735744,0.999892223696496,116.50629813524148
7.733333504,0.9999201318665456,116.25192218919297
7.737931264,0.9999530795768279,115.99714319892394
7.742528512,0.9999891311258023,115.74187590057585
7.747126272,1.0000261196707911,115.48612898566847
7.751724032,1.0000619801295223,115.22984943631234
7.756321792,1.0000944464034691,114.97310088365093
7.760919552,1.0001218901811033,114.71593659800044
7.765517312,1.0001422788557415,114.45845006882304
7.770115072,1.0001547714006096,114.20072175111855
7.774712832,1.000158457586123,113.94290137847435
7.779310592,1.0001531592460968,113.6850696166248
7.78390784,1.0001391708701586,113.42739873268248
7.7885056,1.000117291505962,113.16999742643631
7.79310336,1.000088743117,112.91292337362918
7.79770112,1.0000554558066026,112.65630881888491
7.80229888,1.0000191317537006,112.40018162013149
7.80689664,0.9999820718673667,112.14456648282372
7.8114944,0.9999462139421524,111.8894674139807
7.81609216,0.9999140276986458,111.63484710294216
7.820689408,0.999887200262999,111.38064827196732
7.825287168,0.99986726479598,111.12678991214429
7.829884928,0.9998556151292206,110.87314868229551
7.834482688,0.9998526551905238,110.6196303326326
7.839080448,0.9998588012474271,110.36607947657613
7.843678208,0.9998735682758932,110.11240111706917
7.848275968,0.9998960901763729,109.85846470798981
