freq,mag,phase
6.0,1.0001587098956801,-157.47684363431154
6.004143104,1.0001618591115007,-157.7170156978525
6.008285696,1.0001554561461727,-157.9571440948832
6.0124288,1.0001401232446432,-158.1971127941821
6.016571904,1.0001167786631056,-158.43679429498897
6.020714496,1.0000869981848712,-158.67612706611803
6.0248576,1.0000523352216693,-158.91498206637922
6.029000704,1.000014917777638,-159.15335719036472
6.033143296,0.9999771000179755,-159.39120388684324
6.0372864,0.9999409973899506,-159.62851571701609
6.041429504,0.9999087653506709,-159.865366912601
6.045572096,0.999882477830345,-160.101785715391
6.0497152,0.9998635252038136,-160.3379093398391
6.053858304,0.9998531522452395,-160.57380110003402
6.058000896,0.9998519074169612,-160.8095992716078
6.062144,0.9998599490044857,-161.0454818739139
6.066287104,0.9998767224210697,-161.28153256903192
6.070429696,0.9999013109507343,-161.5178695387648
6.0745728,0.9999321539301761,-161.75460978981522
6.078715904,0.9999674821686053,-161.99181520627758
6.082858496,1.000005256792731,-162.2295225594306
6.0870016,1.0000430133257374,-162.4677591054031
6.091144704,1.0000786294667243,-162.70653899134405
6.095287296,1.0001099857195581,-162.9457855586688
6.0994304,1.0001351941229704,-163.18542330495737
6.103573504,1.0001528011857692,-163.4253864031638
6.107716096,1.0001615419185597,-163.66550901984257
6.1118592,1.0001611788185019,-163.90570836441194
6.116002304,1.000151627008342,-164.1458284810746
6.120144896,1.0001333553374707,-164.3857426185939
6.124288,1.0001075996771258,-164.6253875922248
6.128431104,1.0000757554346853,-164.86459564570228
6.132573696,1.0000397608565965,-165.10333564416834
6.1367168,1.0000018056121711,-165.34153080061023
6.140859904,0.999964214865518,-165.57923145589606
6.145002496,0.999929078762456,-165.8164028164181
6.1491456,0.9998985605476532,-166.05314472892098
6.153288704,0.9998745163301173,-166.28944654490795
6.157431296,0.9998583197931468,-166.52551315187864
6.1615744,0.999851093297919,-166.76140006294398
6.165716992,0.9998530696896486,-166.99723473687163
6.169860096,0.9998642261234543,-167.23317210964615
6.1740032,0.9998838867358644,-167.46934248130955
6.178145792,0.9999110694542019,-167.70580693376567
6.182288896,0.9999437072144226,-167.9427108890774
6.186432,0.9999802436731305,-168.18012359309
6.190574592,1.0000182984616433,-168.4180457387053
6.194717696,1.000055792677124,-168.6564985897641
6.1988608,1.0000902192415373,-168.89547271593122
6.203003392,1.000119836719563,-169.13489484085056
6.207146496,1.0001425991552257,-169.37466868097576
6.2112896,1.0001573157353643,-169.6147457181157
6.215432192,1.0001630603202765,-169.85491153213275
6.219575296,1.000159527443696,-170.09514493557492
6.2237184,1.0001467432587168,-170.3352499734987
6.227860992,1.0001256216956782,-170.57510024104607
6.232004096,1.0000974722577194,-170.81462865559698
6.2361472,1.0000638868616842,-171.05370043021122
6.240289792,1.0000268628063336,-171.29230575038585
6.244432896,0.9999886110773455,-171.53034923219565
6.248576,0.9999514330208906,-171.76785335571645
6.252718592,0.9999175781502945,-172.00491118077957
6.256861696,0.9998890118397747,-172.24149138230754
6.2610048,0.9998674161352711,-172.477705944419
6.265147392,0.9998542148969962,-172.7137147540148
6.269290496,0.9998500886040024,-172.9495692053524
6.2734336,0.9998553265497754,-173.18542862002104
6.277576192,0.9998695066313417,-173.42144099975786
6.281719296,0.9998919752147335,-173.65771087903724
6.2858624,0.9999213278935334,-173.89434462198219
6.290004992,0.9999557143833459,-174.13141534986886
6.294148096,0.9999931334361382,-174.36902871696827
6.2982912,1.0000314161059012,-174.60712228321884
6.302433792,1.0000682641509404,-174.84578259629072
6.306576896,1.000101407135398,-175.08493736145397
6.31072,1.0001289668705708,-175.32452018649448
6.314862592,1.0001491168158676,-175.5644137866913
6.319005696,1.000160799362336,-175.80457498373437
6.3231488,1.0001634230460417,-176.04481168417112
6.327291392,1.0001566007892027,-176.28501764207584
6.331434496,1.0001409012135407,-176.52505622104172
6.3355776,1.0001170371438701,-176.76484426604011
6.339720192,1.000086713867063,-177.00422893430783
6.343863296,1.0000515568055288,-177.24316735651217
6.3480064,1.000013754558013,-177.4815635175128
6.352148992,0.9999754794303277,-177.71947329341432
6.356292096,0.9999390711271049,-177.95680272958023
6.3604352,0.9999067199167816,-178.1936774841667
6.364577792,0.9998802186509307,-178.43013062250955
6.368720896,0.9998613382980006,-178.66627137930672
6.372864,0.9998511716678794,-178.9021910322299
6.377006592,0.999850284716792,-179.13804492872657
6.381149696,0.9998586417228809,-179.37394182319377
6.3852928,0.999875878850167,-179.61001062878242
6.389435392,0.9999010130858491,-179.8464080357657
6.393578496,0.9999323294964886,179.91682344215917
6.3977216,0.9999682517269098,179.6795740844138
6.401864192,1.000006332338995,179.44178724872052
6.406007296,1.0000445355636263,179.20349684839064
6.4101504,1.0000804250029347,178.9646515620565
6.414292992,1.0001119411659194,178.72534045942004
6.418436096,1.0001372456109807,178.4856316090093
6.4225792,1.00015477452853,178.24559709948034
6.426721792,1.0001634157344805,178.00541153652043
6.430864896,1.0001627764150742,177.765166618236
6.435008,1.0001527739202318,177.52497979115927
6.439150592,1.000133969455177,177.2850125669455
6.443293696,1.0001077117531445,177.0453602487684
6.4474368,1.000075367153613,176.80613287766033
6.451579392,1.0000388942935587,176.56735784072197
6.455722496,1.0000004793717376,176.32912007868012
6.4598656,0.9999624405989488,176.0914249262729
6.464008192,0.9999270532043298,175.85426525641935
6.468151296,0.999896466004824,175.61755337528245
6.4722944,0.9998723347469669,175.38123209993302
6.476436992,0.9998562642379356,175.1452108044023
6.480580096,0.999849176232721,174.90931790879088
6.484722688,0.9998515292458772,174.6734773222519
6.488865792,0.9998631226102862,174.43755640312997
6.493008896,0.9998832910469512,174.20136834231738
6.497151488,0.9999107127284,173.96488369559123
6.501294592,0.9999440901901945,173.72797006679244
6.505437696,0.9999810220944301,173.49055554144363
6.509580288,1.0000196259108745,173.252615701535
6.513723392,1.0000573866827684,173.01411464393695
6.517866496,1.0000921731388128,172.77511697836135
6.522009088,1.0001219077416061,172.53565345873002
6.526152192,1.0001447183695604,172.29584015528812
6.530295296,1.0001592423750194,172.05574088166696
6.534437888,1.0001648141262653,171.8155404155807
6.538580992,1.0001608371565407,171.57528151428144
6.542724096,1.0001477001252048,171.33517481434131
6.546866688,1.0001262063388638,171.09530081734684
6.551009792,1.000097392669386,170.85577779568519
6.555152896,1.0000633397313239,170.61668596028474
6.559295488,1.0000258288652057,170.37811875565296
6.563438592,0.9999872236307437,170.14008994428733
6.567581696,0.9999494958680444,169.90260384500334
6.571724288,0.9999154374108236,169.6656180058659
6.575867392,0.9998867976281097,169.4290813871626
6.580010496,0.9998652437997939,169.19286447067898
6.584153088,0.9998521397172454,168.9569573261959
6.588296192,0.9998482539982159,168.72110417004075
6.592439296,0.999853795458112,168.48527960428206
6.596581888,0.9998684720160887,168.2493302650446
6.600724992,0.9998914600035445,168.0130771909922
6.604868096,0.9999212424130538,167.77645721452126
6.609010688,0.9999562015620564,167.53940508560797
6.613153792,0.9999941585868745,167.3018307579919
6.617296896,1.0000328452983904,167.06371678178664
6.621439488,1.0000700572807637,166.82505918822258
6.625582592,1.000103395166258,166.58588426965042
6.629725696,1.0001310741752851,166.3463150968537
6.633868288,1.0001512957484064,166.10641082958315
6.638011392,1.0001627873252763,165.8662868618703
6.642154496,1.0001650758420026,165.6260633863851
6.646297088,1.0001579151231292,165.38584286468028
6.650440192,1.000141643929147,165.14580752429734
6.654583296,1.000117390954328,164.9060654456974
6.658725888,1.0000865765738645,164.6667096827925
6.662868992,1.000050805199601,164.42782922941473
6.667012096,1.0000125197808503,164.18945240533623
6.671154688,0.9999738016606493,163.9516307618882
6.675297792,0.9999371347545123,163.71433593605963
6.679440896,0.9999045030255576,163.4775440262336
6.683583488,0.9998779846575391,163.24114538218492
6.687726592,0.9998590918087005,163.00510938186812
6.691869696,0.9998491107809141,162.76925426847018
6.696012288,0.9998484906303645,162.533481945287
6.700155392,0.9998573431593081,162.29765937666235
6.704298496,0.9998749700805406,162.06164867170577
6.708441088,0.9999006010725967,161.8253199670073
6.712584192,0.9999325241413711,161.58859238690394
6.716727296,0.9999688437998948,161.35138662575045
6.720869888,1.0000074855217778,161.11365549357728
6.725012992,1.0000460907940338,160.87537820982678
6.729156096,1.0000824077015626,160.63657715067558
6.733298688,1.0001141540384249,160.39728648800195
6.737441792,1.000139478407439,160.15760896596723
6.741584896,1.0001568606377307,159.91763850802323
6.745727488,1.0001653795310366,159.67745897415855
6.749870592,1.0001643880836761,159.43724361090497
6.754013696,1.0001539266906625,159.1971208314559
6.758156288,1.0001346644962519,158.95718623973298
6.762299392,1.0001079475820003,158.71759217422724
6.766442496,1.0000749482508293,158.4784178333431
6.770585088,1.0000379546887592,158.23973657354543
6.774728192,0.999999079939538,158.00159099434197
6.778871296,0.9999606948233296,157.7639878379568
6.783013888,0.9999250406156077,157.52690911626115
6.787156992,0.9998941373823215,157.29031692559542
6.791300096,0.9998699870271349,157.05410042333037
6.795442688,0.9998539662714999,156.81816056502356
6.799585792,0.9998471553727909,156.58240830188882
6.803728384,0.999849763677209,156.34667717390371
6.807871488,0.9998618741748213,156.1108319922784
6.812014592,0.9998824523249911,155.87476036389373
6.816157184,0.9999105909214623,155.63837012182182
6.820300288,0.9999443077902298,155.4015092831864
6.824443392,0.9999818745259064,155.1641932415265
6.828585984,1.0000209129258866,154.926305286407
6.832729088,1.0000591089695892,154.6878745613202
6.836872192,1.00009416847749,154.44893249122168
6.841014784,1.000124009963788,154.20954472021518
6.845157888,1.0001469204470599,153.96978377795682
6.849300992,1.0001614073578573,153.7297463682893
6.853443584,1.0001666963160742,153.489587211803
6.857586688,1.0001624083370766,153.24942519770647
6.861729792,1.000148768702277,153.00937452444253
6.865872384,1.000126732581439,152.76959135505984
6.870015488,1.0000975486902426,152.53015826886934
6.874158592,1.0000627768652506,152.29118849725023
6.878301184,1.0000247359455368,152.0527184830458
6.882444288,0.9999856555225751,151.81480973795425
6.886587392,0.9999477266095563,151.57742048020063
6.890729984,0.9999133934862531,151.34059257370606
6.894873088,0.9998844824655948,151.10417162957572
6.899016192,0.9998630122918086,150.86812313300362
6.903158784,0.9998499732610336,150.6323182971572
6.907301888,0.9998463631461014,150.39661849273392
6.911444992,0.9998523018985617,150.16093659111797
6.915587584,0.9998674561436689,149.92509667663035
6.919730688,0.9998908993698647,149.68897216981796
6.923873792,0.9999212272199524,149.45248563126677
6.928016384,0.9999568470076946,149.21552523579177
6.932159488,0.9999952981579808,148.97805021873344
6.936302592,1.0000344381849382,148.74002808026182
6.940445184,1.0000719328281351,148.50146922640434
6.944588288,1.0001055102848864,148.26240817985402
6.948731392,1.0001333816004825,148.02290290367182
6.952873984,1.0001536278622392,147.78309026162214
6.957017088,1.0001649109058488,147.5430428623695
6.961160192,1.0001669311357129,147.30289533160993
6.965302784,1.000159386399069,147.06280372295674
6.969445888,1.0001427296272054,146.82287223461134
6.973588992,1.000117964108361,146.58324797443197
6.977731584,1.0000864283722215,146.34400327020333
6.981874688,1.0000502628599421,146.1052517330149
6.986017792,1.0000113707984195,145.86702279995623
6.990160384,0.9999723220441522,145.6293577199179
6.994303488,0.9999351296072981,145.39223722235087
6.998446592,0.9999022590194327,145.15559524695894
7.002589184,0.9998757454877369,144.91937506273234
7.006732288,0.9998568201074808,144.68347601556383
7.010875392,0.9998469789546851,144.4477914938052
7.015017984,0.9998466214145834,144.21219498993318
7.019161088,0.9998558638750707,143.97652172082093
7.023304192,0.9998740791699102,143.74064577458185
7.027446784,0.9999002411299807,143.50448590996373
7.031589888,0.999932665358897,143.26789239000186
7.035732992,0.9999696242683815,143.03083410088394
7.039875584,1.0000087976629397,142.79322205456114
7.044018688,1.0000478374506558,142.5550701897472
7.048161792,1.0000844282420747,142.31638744775225
7.052304384,1.0001164029752159,142.07723051772993
7.056447488,1.000141795399863,141.83767676272436
7.060590592,1.0001591926106248,141.59779290539106
7.064733184,1.0001674690597555,141.35773702933355
7.068876288,1.0001661224134109,141.11766196280928
7.073019392,1.0001552554555655,140.8776579315412
7.077161984,1.0001355293845282,140.63786047064366
7.081305088,1.0001081819889899,140.39839515205477
7.085448192,1.0000747184174066,140.1593944725527
7.089590784,1.0000372488421159,139.92085837367154
7.093733888,0.9999977613591422,139.6828815127039
7.097876992,0.9999590037797642,139.44548675473493
7.102019584,0.9999228447028485,139.20857981495655
7.106162688,0.9998918246050817,138.9721818623344
7.110305792,0.999867623812939,138.7361599645289
7.114448384,0.9998517946326948,138.5004245235201
7.118591488,0.9998450608545781,138.26483458048654
7.12273408,0.9998480768616129,138.02931309728515
7.126877184,0.9998605627915512,137.79365093107984
7.131020288,0.9998817274401774,137.55777071493853
7.13516288,0.9999104281188184,137.32154203561396
7.139305984,0.9999447364230208,137.084864129029
7.143449088,0.9999828243861753,136.84768501043504
7.14759168,1.0000224150276926,136.60994926923766
7.151734784,1.00006102533806,136.3716720621206
7.155877888,1.000096463954878,136.13286819785156
7.16002048,1.0001265561989658,135.89362758048767
7.164163584,1.00014943318953,135.65401358725578
7.168306688,1.0001638418294172,135.41410920208222
7.17244928,1.000168888672301,135.17409989764758
7.176592384,1.000164216501376,134.9340930154602
7.180735488,1.0001501516891027,134.69419817235732
7.18487808,1.0001276125799472,134.45456669460475
7.189021184,1.0000976510077628,134.21530749304478
7.193164288,1.0000624643459366,133.9765365736752
7.19730688,1.0000238365742218,133.73826052357924
7.201449984,0.9999841967321439,133.50054664223936
7.205593088,0.9999459181846574,133.26337273171438
7.20973568,0.9999112468938299,133.0267307185683
7.213878784,0.9998821867535922,132.79053923679257
7.218021888,0.9998605968671229,132.5547184360332
7.22216448,0.9998478419104597,132.31915258908248
7.226307584,0.9998443701080848,132.08365678901774
7.230450688,0.999850588710616,131.8481889879385
7.23459328,0.999866354337665,131.6125580358133
7.238736384,0.9998904163187726,131.3766313733821
7.242879488,0.9999213601228883,131.1403398447961
7.24702208,0.9999574405948507,130.9035897212737
7.251165184,0.9999964747977599,130.66628601564761
7.255308288,1.000036114658661,130.4284397761588
7.25945088,1.0000740760288418,130.19004312152273
7.263593984,1.000107989357083,129.95117032889158
7.267737088,1.0001359078391185,129.711827793175
7.27187968,1.000156079930748,129.4721787476666
7.276022784,1.000167323669748,129.23229845010223
7.280165888,1.0001690650499104,128.99233275359484
7.28430848,1.0001611510433077,128.75240554828548
7.288451584,1.0001439678534778,128.51264918459634
7.292594688,1.0001185683225182,128.2732036044897
7.29673728,1.000086489851764,128.0341818614231
7.300880384,1.0000496866317237,127.79564825641852
7.305023488,1.0000102169819587,127.55763341729725
7.30916608,0.9999706084191395,127.32018344219479
7.313309184,0.9999331093390191,127.083298451697
7.317452288,0.9999000281507278,126.84690561294362
7.32159488,0.9998733129297867,126.61093353447083
7.325737984,0.9998545057903379,126.37529677099067
7.329881088,0.9998447947289301,126.13984685907361
7.33402368,0.9998448481142824,125.90448512449956
7.338166784,0.9998544049220596,125.66906045872756
7.342309888,0.999873102488846,125.4334274686469
7.34645248,0.9998998325964752,125.19748900583797
7.350595584,0.9999329446123999,124.96112392128158
7.354738688,0.999970526193453,124.72426286962101
7.35888128,1.0000101943650388,124.48685401348202
7.363024384,1.0000496906948828,124.24890093700786
7.367167488,1.0000866238512256,124.01040600847246
7.37131008,1.000118818309455,123.77143079351251
7.375453184,1.0001444263968577,123.53205843011457
7.379596288,1.000161740722105,123.29237216972787
7.38373888,1.0001698089750275,123.05252224715271
7.387881984,1.0001681413708858,122.81261480594102
7.392025088,1.0001568255415714,122.57281016563309
7.39616768,1.0001366245071779,122.33323844819186
7.400310784,1.0001086214428703,122.09400552624534
7.404453888,1.0000745310328134,121.85521483591734
7.40859648,1.0000364389410157,121.61693727980034
7.412739584,0.9999964838276298,121.37918721555016
7.416882688,0.9999572524898618,121.14203724581058
7.42102528,0.9999207507538949,120.90542246914715
7.425168384,0.9998895158408176,120.66926250929885
7.429311488,0.9998652737405078,120.43351939937239
7.43345408,0.9998493858972415,120.19805870790108
7.437597184,0.9998429192728288,119.96273467235747
7.441739776,0.9998462657406058,119.72746143061391
7.44588288,0.9998592272911344,119.49207730163138
7.450025984,0.9998809083676824,119.25645608738273
7.454168576,0.9999102247858651,119.02045449753925
7.45831168,0.9999452220545788,118.78403878076995
7.462454784,0.9999838819554534,118.54707260435181
7.466597376,1.0000241075657466,118.3095707202818
7.47074048,1.0000631039319874,118.07151480012531
7.474883584,1.000098807355318,117.83293328819403
7.479026176,1.0001290911375793,117.59389082745749
7.48316928,1.000152096991471,117.35448179262373
7.487312384,1.0001663531396787,117.11480763709812
7.491454976,1.0001711470535037,116.8750047445318
7.49559808,1.0001661779783946,116.63519194071235
7.499741184,1.000151533119384,116.39553668174214
7.503883776,1.0001283889631674,116.15615353231227
7.50802688,1.0000979323714767,115.91713228507675
7.512169984,1.0000620496871098,115.67858747353507
7.516312576,1.0000227675642661,115.44059292230484
7.52045568,0.9999826456995121,115.20313965985763
7.524598784,0.9999439157066006,114.96626957428501
7.528741376,0.9999088691807172,114.72992141407921
7.53288448,0.9998796843101257,114.49401141197437
7.537027584,0.9998581709452288,114.25846615533831
7.541170176,0.9998454091006433,114.02316770924617
7.54531328,0.9998422894068616,113.78799549613738
7.549456384,0.9998489958018787,113.55280920271488
7.553598976,0.9998651458259787,113.31744837454204
7.55774208,0.9998897637034831,113.08181425736952
7.561885184,0.9999213533543694,112.84578524059793
7.566027776,0.9999580874997808,112.6092766601867
7.57017088,0.9999977261976585,112.3722309024551
7.574313984,1.0000379840187466,112.13462468742183
7.578456576,1.0000762960898582,111.89647407845621
7.58259968,1.0001105016052039,111.6578145658346
7.586742784,1.000138569695562,111.41870935962011
7.590885376,1.000158748633391,111.17928261122255
7.59502848,1.0001698882026309,110.93962809741724
7.599171584,1.0001713246830433,110.69988751890249
7.603314176,1.000162920610584,110.46019156597121
7.60745728,1.0001452157449395,110.22072298297012
7.611600384,1.0001192452265166,109.98153187450333
7.615742976,1.0000865244667492,109.74277890091514
7.61988608,1.0000490541468425,109.50449767046683
7.624029184,1.0000089898663533,109.26678194791788
7.628171776,0.9999689237500875,109.02963715971825
7.63231488,0.9999310175070285,108.79303090560805
7.636457984,0.9998975650051288,108.55694312775334
7.640600576,0.999870774184051,108.3212857606684
7.64474368,0.9998520136065489,108.0859531070894
7.648886784,0.9998424777819155,107.8508266200051
7.653029376,0.9998427852270826,107.61578029409979
7.65717248,0.9998529204925258,107.38063454271898
7.661315584,0.9998720801879336,107.14530863812286
7.665458176,0.9998994492356125,106.90965568281351
7.66960128,0.9999332817578388,106.67356791234631
