freq,mag,phase
6.0,1.0009189367809803,89.77351113208474
6.002286592,1.0005647554055364,89.61906002644801
6.004572672,1.000175946491423,89.47000634225839
6.006859264,0.999776244916003,89.32673595630754
6.009145344,0.9993910107455624,89.1891877972221
6.011431936,0.999044614531043,89.05695814945886
6.013718016,0.9987589891822531,88.92937256113822
6.016004608,0.9985525008918227,88.8054340654122
6.018290688,0.998437967406427,88.68383482379458
6.02057728,0.9984230636307441,88.56322555762479
6.022863872,0.9985085049626636,88.44214893273309
6.025149952,0.9986890948372315,88.31912459448677
6.027436544,0.998953296091739,88.19290207055761
6.029722624,0.9992843082433187,88.06239424553698
6.032009216,0.9996612783315676,87.9267094903108
6.034295296,1.000060208835098,87.78544293910912
6.036581888,1.0004559667379307,87.63840167683526
6.03886848,1.000823234814441,87.48586096664202
6.04115456,1.0011392995874302,87.32837277884447
6.043441152,1.0013837108406547,87.1668662945306
6.045727232,1.0015412633023735,87.00247172873753
6.048013824,1.001601876141685,86.83652198370108
6.050299904,1.0015616725193284,86.6704338930108
6.052586496,1.001423370871191,86.50565942548832
6.054872576,1.0011955112848598,86.34352365634625
6.057159168,1.000892316371934,86.18528188679414
6.05944576,1.0005330403975683,86.03184902891124
6.06173184,1.0001402819556797,85.88389015965764
6.064018432,0.9997389061362978,85.74173966016163
6.066304512,0.9993542841394997,85.6053037489786
6.068591104,0.9990108048245921,85.47420785977617
6.070877184,0.9987303382856887,85.34769243072081
6.073163776,0.9985306503015132,85.22467662434818
6.075450368,0.9984245590278292,85.10391268492076
6.077736448,0.9984186348482673,84.98402564175369
6.08002304,0.9985136806638076,84.86348250838728
6.08230912,0.9987032913928788,84.74090915325665
6.084595712,0.9989756004102069,84.61499357592857
6.086881792,0.9993135362479034,84.4846503296986
6.089168384,0.999695448359859,84.34908765986413
6.091454464,1.0000971804831267,84.20782383065098
6.093741056,1.0004931638365682,84.06080931575437
6.096027648,1.0008587547886314,83.90830921169982
6.098313728,1.001170417218689,83.75089200638372
6.10060032,1.001408719121997,83.58951089474446
6.1028864,1.0015584785499287,83.42535082121265
6.105172992,1.0016102778090417,83.25973297485649
6.107459072,1.0015607284725838,83.0941445373794
6.109745664,1.00141303467886,82.9299917383498
6.112032256,1.0011763366161015,82.76861513587023
6.114318336,1.0008656521339694,82.61119990567738
6.116604928,1.0005004572936036,82.45874095323298
6.118891008,1.0001038835700173,82.31179982353025
6.1211776,0.9997008535172439,82.17070232761259
6.12346368,0.9993170666180544,82.03533708924533
6.125750272,0.9989768077830509,81.90527413259746
6.128036352,0.9987016353807701,81.77968510190927
6.130322944,0.9985090938150686,81.65754052084348
6.132609536,0.998411430757289,81.53755432226863
6.134895616,0.9984150076138425,81.41828203021362
6.137182208,0.9985194726365121,81.29825622983522
6.139468288,0.9987184133471128,81.17598970090813
6.14175488,0.9989989929965766,81.05030706839483
6.14404096,0.9993435329038783,80.92005932756905
6.146327552,0.9997302920724409,80.78446712010849
6.148614144,1.0001345493548457,80.64320194368308
6.150900224,1.0005309388117591,80.49611105038854
6.153186816,1.0008942313362972,80.34355020486193
6.155472896,1.001201483797181,80.18611055001651
6.157759488,1.0014334224179477,80.0247972077074
6.160045568,1.0015751004427764,79.86080374310613
6.16233216,1.0016178237713702,79.69548205151716
6.16461824,1.0015587743477339,79.53028091359207
6.166904832,1.0014015169714776,79.36668173561615
6.169191424,1.0011560539506028,79.20596898916232
6.171477504,1.0008378913615554,79.04938613948866
6.173764096,1.0004668402323955,78.89778849737422
6.176050176,1.0000666111436467,78.75181049668753
6.178336768,0.9996621780155481,78.61170110713611
6.180622848,0.9992795213837006,78.47733515785558
6.18290944,0.9989426160937942,78.34820842980366
6.18519552,0.9986730725527709,78.22353585523415
6.187482112,0.998488035834784,78.10220285226892
6.189768704,0.9983991511441002,77.98287399868777
6.192054784,0.9984121484213242,77.86412562054672
6.194341376,0.998526351891462,77.74447920569231
6.196627456,0.9987344713605751,77.62247236857762
6.198914048,0.9990233647922246,77.4968705537402
6.201200128,0.9993745379230985,77.36663737482858
6.20348672,0.9997660075867174,77.23100968532017
6.205773312,1.000172828621653,77.08959613168223
6.208059392,1.0005691384666044,76.94236441542273
6.210345984,1.000930069012665,76.78964587315379
6.212632064,1.0012327297298889,76.6321268369249
6.214918656,1.001457922501885,76.47079730517419
6.217204736,1.0015914962269663,76.30688827207511
6.219491328,1.001624876348085,76.14179335416718
6.221777408,1.001556123583313,75.97691898768124
6.224064,1.0013894198936226,75.81380627095625
6.226350592,1.0011351245745452,75.65373306438374
6.228636672,1.0008093693270514,75.49786694144525
6.230923264,1.000432672714024,75.34711023374719
6.233209344,1.0000288355853633,75.20202476770316
6.235495936,0.999623340848424,75.06283782437073
6.237782016,0.9992419417411229,74.92939084607515
6.240068608,0.9989088137130527,74.8011534065098
6.2423552,0.9986451184921268,74.67727646416729
6.24464128,0.9984675073619451,74.55664111780473
6.246927872,0.9983876076572938,74.43789296860653
6.249213952,0.9984103245034953,74.31959126478216
6.251500544,0.9985343273524235,74.20022275869525
6.253786624,0.9987517962044494,74.07841551484307
6.256073216,0.9990488562916929,73.9528456963899
6.258359296,0.9994067312956311,73.82253463869482
6.260645888,0.9998027694527617,73.68670659371729
6.26293248,1.0002117827282269,73.54509830467961
6.26521856,1.0006080147306298,73.39759314513722
6.267505152,1.0009663011058618,73.2446669910506
6.269791232,1.00126383790976,73.08701484016024
6.272077824,1.0014823484626532,72.9255656607713
6.274363904,1.0016074213202804,72.76169812997685
6.276650496,1.0016314171108993,72.59672493409231
6.278937088,1.0015527602730765,72.43218702454017
6.281223168,1.0013764273669667,72.26947100509761
6.28350976,1.0011133436741182,72.10995269579844
6.28579584,1.0007801316895888,71.95475223015137
6.288082432,1.0003978514932033,71.80477455545513
6.290368512,0.999990589724907,71.66048980020452
6.292655104,0.9995841237195326,71.52214914669568
6.294941184,0.9992042742878955,71.38952772265702
6.297227776,0.9988749678910234,71.26212813396094
6.299514368,0.9986172107637262,71.13895594903651
6.301800448,0.99844757158827,71.01896248734086
6.30408704,0.9983767359910427,70.9007274836569
6.30637312,0.9984092893319284,70.78278216846019
6.308659712,0.9985431696018693,70.66362486218624
6.310945792,0.9987698335527642,70.54187760678968
6.313232384,0.999075159599048,70.41624758247876
6.315518464,0.9994394728123768,70.28574253067123
6.317805056,0.999839900051369,70.14969804519009
6.320091648,1.0002510887594203,70.00777193641014
6.322377728,1.0006468446008876,69.85997255898371
6.32466432,1.0010021438722947,69.70674564932682
6.3269504,1.0012946738682678,69.54880801921034
6.329236992,1.0015058812968958,69.38725823123634
6.331523072,1.0016224235065523,69.22332480939109
6.333809664,1.001636882640538,69.05843876744316
6.336096256,1.001548256659305,68.89412024806876
6.338382336,1.0013622095543329,68.73176645942713
6.340668928,1.0010903180833564,68.572726899559
6.342955008,1.0007497082980825,68.41815172531167
6.3452416,1.0003619419330603,68.2688333636268
6.34752768,0.9999514510198089,68.12532699710476
6.349814272,0.999544242148091,67.9877703599841
6.352100352,0.9991659919587703,67.85595582462794
6.354386944,0.9988409643250322,67.72926400115671
6.356673536,0.9985895971218671,67.6067649305766
6.358959616,0.99842804204452,67.4873119028956
6.361246208,0.9983664556449346,67.36949357201463
6.363532288,0.9984088983117541,67.25180955207469
6.36581888,0.9985527757913616,67.13278985026139
6.36810496,0.9987888565454904,67.0109983800143
6.370391552,0.9991022698035013,66.88522725037613
6.372678144,0.999473132982638,66.7544836545828
6.374964224,0.999877805764239,66.61808297002334
6.377250816,1.0002908275075695,66.47575948098012
6.379536896,1.0006859819048919,66.32757243246728
6.381823488,1.0010382904524506,66.1739648290471
6.384109568,1.001325405605558,66.0157218541858
6.38639616,1.0015292309752442,65.85394458061356
6.38868224,1.001636937238863,65.68987959154468
6.390968832,1.001641656940387,65.52504439027669
6.393255424,1.0015430628153987,65.36084936591804
6.395541504,1.0013471669170482,65.19880348434481
6.397828096,1.0010665366002272,65.04020929801025
6.400114176,1.0007186056354316,64.88615777873672
6.402400768,1.0003255315418202,64.73747739383197
6.404686848,0.9999119817482618,64.59467064499974
6.40697344,0.9995041969709836,64.45784642117722
6.409260032,0.9991280087217524,64.32669774295373
6.411546112,0.9988072029066659,64.20067181785463
6.413832704,0.9985624224204107,64.07873388853282
6.416118784,0.9984090561786929,63.959753912155854
6.418405376,0.9983568939703225,63.84224975158577
6.420691456,0.9984094950967389,63.72476580656107
6.422978048,0.9985633105903894,63.605802040263384
6.425264128,0.9988088289505054,63.48389526052173
6.42755072,0.9991302666788092,63.35788106048964
6.429837312,0.9995074115946789,63.22677422109247
6.432123392,0.9999162736366313,63.08996866015828
6.434409984,1.000331040220749,62.94717156092093
6.436696064,1.0007253301653085,62.79849242419426
6.438982656,1.0010742351697346,62.644441961098664
6.441268736,1.0013558023309075,62.485801501401106
6.443555328,1.0015520860630107,62.32371388502798
6.44584192,1.0016508870385286,62.159508702247166
6.448128,1.0016456485152494,61.99459627717226
6.450414592,1.0015369598512651,61.83050508480944
6.452700672,1.0013313576632024,61.66868273922037
6.454987264,1.0010419080450417,61.51046516346154
6.457273344,1.0006868073425113,61.35689181746321
6.459559936,1.0002884304653787,61.20880340707912
6.461846016,0.999871961427431,61.066590025023935
6.464132608,0.9994638409677001,60.93041179419432
6.4664192,0.9990898509072534,60.79990944773529
6.46870528,0.9987737698320481,60.674446979977
6.470991872,0.9985355918665219,60.55301625659792
6.473277952,0.9983907219554388,60.43440430172523
6.475564544,0.9983482264596456,60.31713459955156
6.477850624,0.9984108598253355,60.19976150236166
6.480137216,0.9985747687119119,60.08071832530036
6.482423296,0.9988296146717018,59.95864006765335
6.484709888,0.9991591163180739,59.832304202630475
6.48699648,0.9995424482785654,59.70075956679523
6.48928256,0.9999552640763577,59.56344153212483
6.491569152,1.00037143749199,59.42008632406362
6.493855232,1.000764669397995,59.27086772817989
6.496141824,1.0011100302983302,59.11626392555283
6.498427904,1.001385769235044,58.95718142773533
6.500714496,1.001574398342834,58.79475073897344
6.503001088,1.0016639807816778,58.63026123083226
6.505287168,1.001648810876723,58.46524811796241
6.50757376,1.0015298924948393,58.301201729155444
6.50985984,1.0013145454989054,58.139560258095905
6.512146432,1.0010163570573631,57.98164542238466
6.514432512,1.0006541461122498,57.82848429443676
6.516719104,1.0002507217212016,57.68088211889626
6.519005184,0.9998315909134848,57.53924118505947
6.521291776,0.9994233456965946,57.4036318074949
6.523578368,0.9990517211234748,57.2736799639518
6.525864448,0.9987404659563535,57.14872289849918
6.52815104,0.9985093022969986,57.02770822968285
6.53043712,0.9983729284795365,56.90937155662669
6.532723712,0.9983402128386532,56.79230053463844
6.535009792,0.9984131024477677,56.67491104036209
6.537296384,0.9985872203471835,56.55574896145411
6.539582976,0.9988512629806925,56.4333465610341
6.541869056,0.9991887825593642,56.30660328833928
6.544155648,0.9995781236810476,56.174555872619486
6.546441728,0.9999947854225993,56.036642979663036
6.54872832,1.000412247028098,55.8926619823254
6.5510144,1.0008042527107712,55.742803503217125
6.553300992,1.0011458030978437,55.5876131297052
6.555587072,1.0014155621036869,55.42798133856589
6.557873664,1.001596284548938,55.26510799387039
6.560160256,1.0016764822686035,55.100313772875595
6.562446336,1.0016513617100793,54.93511424829823
6.564732928,1.0015221390076912,54.7710177709704
6.567019008,1.0012970247015325,54.609488323244136
6.5693056,1.0009902112060416,54.451818152088606
6.57159168,1.0006209225774383,54.29902034445784
6.573878272,1.0002126293074647,54.15184279998897
6.576164864,0.9997910459200798,54.010713283381776
6.578450944,0.9993827705809389,53.875585709734665
6.580737536,0.9990137632673439,53.74611153986287
6.583023616,0.9987074863271449,53.621573294293555
6.585310208,0.9984834663736082,53.50089424564147
6.587596288,0.9983559064300366,53.38278686475417
6.58988288,0.9983329271194814,53.26577609111754
6.59216896,0.9984162000431179,53.14831247620425
6.594455552,0.9986003473344673,53.028918959560585
6.596742144,0.9988737227026584,52.90616223668501
6.599028224,0.9992190198159729,52.77890373533424
6.601314816,0.9996142991796857,52.64624379485142
6.603600896,1.0000345499902248,52.50765666912139
6.605887488,1.0004531316790188,52.36295829827546
6.608173568,1.0008436719062084,52.212385893567046
6.61046016,1.0011812921061622,52.0565207165328
6.612746752,1.0014448269239336,51.896295705935906
6.615032832,1.0016174434803515,51.732934262783566
6.617319424,1.0016883090345117,51.567750495950946
6.619605504,1.001652978602752,51.40232704761716
6.621892096,1.0015135196093028,51.23813744342565
6.624178176,1.0012787282203788,51.07665380248917
6.626464768,1.0009632996093398,50.91914768835412
6.628750848,1.0005872147259418,50.76662407153101
6.63103744,1.0001741251438663,50.61982482464276
6.633324032,0.999750217668072,50.47908883781681
6.635610112,0.9993421930563265,50.34440186592026
6.637896704,0.9989760988396328,50.21533069347726
6.640182784,0.9986751080716717,50.091146336438506
6.642469376,0.9984582781449103,49.97069613649961
6.644755456,0.9983396356414607,49.85273792943409
6.647042048,0.9983267029231327,49.73570426530473
6.649328128,0.9984202907152188,49.618086769445455
6.65161472,0.9986144651497021,49.49835617305192
6.653901312,0.9988970997866925,49.375144055556184
6.656187392,0.9992501911895139,49.2473014162488
6.658473984,0.9996512286352592,49.11396415978174
6.660760064,1.0000749268023168,48.97461941265523
6.663046656,1.0004944636418154,48.82913054550352
6.665332736,1.0008832904350986,48.67776058014276
6.667619328,1.0012167351317725,48.52117853186326
6.66990592,1.0014737274282612,48.36026926246598
6.672192,1.0016381590956334,48.19630001286523
6.674478592,1.0016995702995661,48.03069025195612
6.676764672,1.0016538951001033,47.86496199242335
6.679051264,1.0015041650378573,47.70061434087722
6.681337344,1.0012596527220714,47.53910422748482
6.683623936,1.0009357467153328,47.381710712243205
6.685910016,1.000552819763004,47.22940293697148
6.688196608,1.0001351664015088,47.08288926846097
6.6904832,0.9997090272694118,46.94250442685302
6.69276928,0.9993015612266395,46.80816722209397
6.695055872,0.998938395551923,46.67944345069592
6.697341952,0.9986428333400611,46.55551027651718
6.699628544,0.9984335080051142,46.43523415607875
6.701914624,0.9983238908292645,46.31729888137096
6.704201216,0.9983209540815277,46.20017562134778
6.706487808,0.9984248862021905,46.082311786251445
6.708773888,0.9986292331821378,45.96216473637682
6.71106048,0.9989209571114526,45.8384071214946
6.71334656,0.9992816270355637,45.70990567976288
6.715633152,0.9996883390030258,45.57580407148277
6.717919232,1.0001153735269601,45.43561459888926
6.720205824,1.000535478975451,45.28923794435286
6.722491904,1.0009224054650778,45.137031617811964
6.724778496,1.0012515126724346,44.97960807737747
6.727065088,1.001502009106454,44.81796743816428
6.729351168,1.001658076943889,44.65338671487885
6.73163776,1.0017098264959399,44.48725102789375
6.73392384,1.0016539566720557,44.321144460110645
6.736210432,1.0014938989873865,44.15657520512309
6.738496512,1.0012397540482574,43.99498752359104
6.740783104,1.0009074439294565,43.83761782846552
6.743069696,1.0005179449129489,43.68547447219655
6.745355776,1.0000958195379153,43.539198781758664
6.747642368,0.9996677496054199,43.39907566846892
6.749928448,0.9992608967282719,43.265027531368325
6.75221504,0.9989009908996074,43.136550445735736
6.75450112,0.9986110125899436,43.01279052017276
6.756787712,0.9984092713758547,42.89259955160136
6.759073792,0.99830883662076,42.77462484685595
6.761360384,0.9983159462343002,42.6573270988958
6.763646976,0.9984303207468291,42.53910184093614
6.765933056,0.9986447600290544,42.41848432186807
6.768219648,0.998945510055099,42.29408957527295
6.770505728,0.9993137174770984,42.164828603579465
6.77279232,0.9997259231772503,42.02987243699382
6.7750784,1.0001559831553701,41.88876275312601
6.777364992,1.0005767540493136,41.7414691862749
6.779651584,1.0009616104322905,41.58829968572791
6.781937664,1.001286128485495,41.42998229468267
6.784224256,1.0015298994000337,41.26753210544394
6.786510336,1.0016774536801216,41.10222146459511
6.788796928,1.00171948167542,40.93552432870048
6.791083008,1.0016533395341038,40.768977483326104
6.7933696,1.0014830420475478,40.604115277304636
6.79565568,1.0012192970760783,40.442394701643
6.797942272,1.0008786896231199,40.28499716786945
6.800228864,1.0004827812774184,40.132925489554005
6.802514944,1.0000563427689793,39.98681863877691
6.804801536,0.9996265727115545,39.846892108438496
6.807087616,0.9992205235591871,39.71304683741748
6.809374208,0.9988640644988394,39.58471510824093
6.811660288,0.9985798567999418,39.46105473836858
6.81394688,0.9983858471210905,39.34088601130083
6.81623296,0.9982946238773944,39.2227695227303
6.818519552,0.9983118956875767,39.10518654407888
6.820806144,0.9984367250829133,38.986552287312286
6.823092224,0.9986611040795725,38.865356812249495
6.825378816,0.9989708728930425,38.74025543956282
6.827664896,0.999346399546926,38.610142939385646
6.829951488,0.9997638935643474,38.47424108910951
6.832237568,1.0001968386719944,38.33213598344992
6.83452416,1.000617919655302,38.18381432018325
6.836810752,1.0010004755952626,38.02963459725345
6.839096832,1.0013202895110285,37.8703582244257
6.841383424,1.0015571743094898,37.707018723774276
6.843669504,1.0016961691449513,37.540941238822654
6.845956096,1.0017283939061865,37.373598749802504
6.848242176,1.001651912724646,37.206557406242155
6.850528768,1.0014713415698313,37.04133748668271
6.852814848,1.0011981863207289,36.87939389094123
6.85510144,1.000849343245546,36.72190301401893
6.857388032,1.000446995783185,36.56985587160813
6.859674112,1.0000165284972473,36.4238085631315
6.861960704,0.9995851602386266,36.284021243893186
6.864246784,0.9991801310114891,36.150303443781766
6.866533376,0.998827257886651,36.02205876096538
6.868819456,0.9985489173907603,35.898419370753494
6.871106048,0.9983628126410138,35.77816469617692
6.87339264,0.9982808733092853,35.65983733274627
6.87567872,0.9983083597045139,35.54188354350145
6.877965312,0.9984434564573009,35.42273500082093
6.880251392,0.9986778891926906,35.3008735109642
6.882537984,0.9989964930684814,35.17497133115093
6.884824064,0.9993792475733192,35.04394238911708
6.887110656,0.9998018874365234,34.907021255448456
6.889396736,1.0002375980636597,34.76384306988022
6.891683328,1.0006589173383256,34.61442336885942
6.89396992,1.0010390752761142,34.459165338294234
6.896256,1.0013539582138407,34.298831233856916
6.898542592,1.0015839465640939,34.13456660735191
6.900828672,1.001714243550046,33.96763560207132
6.903115264,1.0017367867891311,33.79959265057022
6.905401344,1.0016498721673608,33.63196882772102
6.907687936,1.0014591287443348,33.4663321087413
6.909974528,1.0011764636244789,33.30409800875417
6.912260608,1.0008196166647656,33.146436148591874
6.9145472,1.000411149201728,32.99433579041536
6.91683328,0.9999767464453406,32.84830804561352
6.919119872,0.9995439482712606,32.70855910937392
6.921405952,0.99914021644983,32.57486003601613
6.923692544,0.998790971452041,32.44663927811241
6.925978624,0.9985186955369654,32.322937292335354
6.928265216,0.9983405687108207,32.202503298100964
6.930551808,0.9982679490022146,32.083856525316655
6.932837888,0.9983055929867766,31.965473939137045
6.93512448,0.9984511381898107,31.845713737180567
6.93741056,0.9986953609434936,31.72311409199552
