freq,mag,phase
6.0,1.0001032997949924,131.26251008368948
6.002287104,0.9998290204141971,131.11180979204062
6.004574208,0.9995674990442923,130.96507180389915
6.006861312,0.9993329819848489,130.8219780187379
6.009147904,0.9991404135846972,130.6820291077831
6.011435008,0.9990019674005646,130.5445409182503
6.013722112,0.9989263041558354,130.40865328376984
6.016009216,0.9989184581195071,130.27342895044103
6.01829632,0.998978782536587,130.1378584925088
6.020583424,0.9991036808161982,130.00097052669696
6.022870016,0.9992849545144493,129.86194511564707
6.02515712,0.9995114059367953,129.71993989249603
6.027444224,0.9997686753225273,129.57449959058928
6.029731328,1.0000403265799511,129.425241713155
6.032018432,1.0003093892915325,129.2721035104235
6.034305536,1.000558747805181,129.11524858514144
6.036592128,1.0007726869540172,128.95507070228857
6.038879232,1.0009375019136875,128.79219834195885
6.041166336,1.001042961325534,128.62740860846148
6.04345344,1.0010824337504756,128.46158756616413
6.045740544,1.0010533846598544,128.29574449707206
6.048027648,1.0009574715508367,128.1308540648788
6.05031424,1.0008007772461152,127.96781588644511
6.052601344,1.0005932310591572,127.80748110619412
6.054888448,1.0003478882855612,127.6504556208968
6.057175552,1.0000802101311703,127.49716697683748
6.059462656,0.9998070060833736,127.34788396622439
6.06174976,0.9995457029976208,127.20250597580808
6.064036352,0.9993130217934818,127.06075599950256
6.066323456,0.9991231896951233,126.92212540915156
6.06861056,0.9989886280762669,126.78593797836825
6.070897664,0.9989179157971763,126.65124062296167
6.073184768,0.998915457315091,126.51716184527298
6.075471872,0.9989813271696681,126.38262216489768
6.077758464,0.9991116194702779,126.24672586289897
6.080045568,0.999297991628373,126.10856905756302
6.082332672,0.9995285833993329,125.96743124908872
6.084619776,0.9997887918754739,125.8227434907131
6.08690688,1.000062420924985,125.6742267282807
6.089193984,1.0003318210470844,125.52180597008892
6.091481088,1.000580237561773,125.36566578190336
6.09376768,1.0007917069669727,125.20623491623945
6.096054784,1.0009529310611296,125.04415424246218
6.098341888,1.001053919034369,124.88020485042021
6.100628992,1.0010881571951111,124.71529833887783
6.102916096,1.0010534333534244,124.55042545065128
6.1052032,1.0009519027823734,124.38660726011997
6.107489792,1.000789941661745,124.2247481561717
6.109776896,1.0005778118078508,124.06559638059831
6.112064,1.0003288196044302,123.90985542483999
6.114351104,1.000058650734125,123.75790036710151
6.116638208,0.9997844744289519,123.60992285651072
6.118925312,0.9995234850830061,123.46593104763814
6.121211904,0.9992923432388677,123.32550962127992
6.123499008,0.9991056542639708,123.1881891667212
6.125786112,0.9989752466702752,123.05319827707224
6.128073216,0.9989095921623485,122.9197131580553
6.13036032,0.9989126603154612,122.78671515836326
6.132647424,0.9989843797700609,122.65321630617154
6.134934016,0.9991202294919586,122.51822735516852
6.13722112,0.9993116399557503,122.38091893922804
6.139508224,0.9995464217776022,122.24055804307557
6.141795328,0.9998097588001882,122.09661030790916
6.144082432,1.0000850101498948,121.94877602621473
6.146369536,1.0003547212223352,121.79701456730209
6.148656128,1.0006019514141478,121.64157398329415
6.150943232,1.0008108878306041,121.4828583724805
6.153230336,1.0009684251758844,121.32149544552894
6.15551744,1.001064595752096,121.15834528140262
6.157804544,1.0010934954465718,120.99434556671837
6.160091648,1.0010530267558708,120.83045983047792
6.162378752,1.0009456291948446,120.66765222811208
6.164665344,1.000778268710243,120.50690424090106
6.166952448,1.0005615007645676,120.34898537546773
6.169239552,1.0003087819863483,120.1944572929235
6.171526656,1.000036248627135,120.0437914798941
6.17381376,0.9997610345861186,119.89717297243389
6.176100864,0.9995005937955334,119.75445964598424
6.178387456,0.9992714648111786,119.61535370662232
6.18067456,0.9990880162419854,119.47930453833712
6.182961664,0.9989621286761132,119.34554591337839
6.185248768,0.9989015563285961,119.21318124846948
6.187535872,0.9989104099348585,119.08124269633024
6.189822976,0.9989880280431783,118.94869810434035
6.192109568,0.9991295234288271,118.81460334132278
6.194396672,0.9993259775973058,118.67809340000453
6.196683776,0.9995649657384831,118.53845070325077
6.19897088,0.9998313056597897,118.39519890769974
6.201257984,1.0001082576854659,118.24800959483116
6.203545088,1.0003781243297378,118.09687655621165
6.20583168,1.0006240684562897,117.94207774468678
6.208118784,1.0008302504337478,117.7840144300647
6.210405888,1.000983993554748,117.62337847742674
6.212692992,1.0010752439283037,117.46102218523359
6.214980096,1.001098415916361,117.29783561379676
6.2172672,1.0010519206975672,117.13487917014764
6.219553792,1.0009387295799081,116.97312492036568
6.221840896,1.000765969872427,116.81344278282894
6.224128,1.0005444236381482,116.65668069832829
6.226415104,1.0002881588674968,116.50339444326565
6.228702208,1.0000133026210478,116.35400677258399
6.230989312,0.9997371748256055,116.20865682208219
6.233275904,0.9994774289285887,116.06724689406515
6.235563008,0.9992503486810416,115.92942223940439
6.237850112,0.9990704139726858,115.7945979063444
6.240137216,0.9989489968859004,115.66200927536414
6.24242432,0.9988939405192763,115.53075068801002
6.244711424,0.9989087007384169,115.39981823978954
6.246998528,0.9989924795302673,115.26818559779315
6.24928512,0.9991397640461999,115.13495409103353
6.251572224,0.9993414050189925,114.99919426318422
6.253859328,0.9995844867323584,114.86024312365821
6.256146432,0.9998538277052806,114.71760015635651
6.258433536,1.000132237648397,114.57100212580286
6.26072064,1.000402253644773,114.42046423934299
6.263007232,1.0006466921247674,114.26625736413463
6.265294336,1.000850003956753,114.10881302124815
6.26758144,1.0009995435432626,113.94885121929386
6.269868544,1.0010856147997989,113.78723768510943
6.272155648,1.0011029905343574,113.62486731257256
6.274442752,1.001050426485977,113.46280284450282
6.276729344,1.0009311974809803,113.30201941379566
6.279016448,1.0007528977375684,113.14343105396112
6.281303552,1.0005266179884704,112.9877983219131
6.283590656,1.0002667636792983,112.83571803766054
6.28587776,0.9999895450778729,112.68756282882708
6.288164864,0.9997126305735518,112.54350616110247
6.290451456,0.999453713723634,112.40335236459312
6.29273856,0.9992289092100309,112.26675967859913
6.295025664,0.9990526053043859,112.13314105099757
6.297312768,0.9989360273332376,112.00167099197134
6.299599872,0.9988866312520355,111.87145673860414
6.301886976,0.9989074720210305,111.74148084292065
6.304173568,0.9989972058895437,111.61076297656399
6.306460672,0.999150454900079,111.47829971346557
6.308747776,0.9993573685801771,111.3432503799197
6.31103488,0.9996046489460217,111.20492909515401
6.313321984,0.9998769115982941,111.0628850106166
6.315609088,1.0001569868823161,110.91684687046185
6.317896192,1.000426811493201,110.76683213128234
6.320182784,1.0006695646696664,110.61317980498846
6.322469888,1.000869768014198,110.45630440076846
6.324756992,1.0010150317988613,110.29699004189992
6.327044096,1.0010957750210687,110.13605670266595
6.3293312,1.0011072265487366,109.97450048420015
6.331618304,1.0010483751300336,109.81328847242145
6.333904896,1.0009230400138358,109.6534621171994
6.336192,1.0007391008935806,109.49590737823685
6.338479104,1.0005080772601846,109.34138576118256
6.340766208,1.000244484525932,109.19048753163065
6.343053312,0.999965305875342,109.04357998900151
6.345340416,0.9996877474692997,108.90072911660263
6.347627008,0.9994296296202795,108.76180609395398
6.349914112,0.999207390299195,108.62643961594397
6.352201216,0.9990348975908881,108.4939531055108
6.35448832,0.9989232572461278,108.3635797488413
6.356775424,0.9988795488504151,108.23438042311909
6.359062528,0.9989066577113126,108.10533864547062
6.36134912,0.9990029085413681,107.97544639336762
6.363636224,0.9991619770153912,107.8437195663095
6.365923328,0.9993740547662594,107.70933732211194
6.368210432,0.9996255700945808,107.57159424658053
6.370497536,0.9999008616821687,107.43006939846842
6.37278464,1.000182122816279,107.28454359475522
6.375071232,1.0004517135437894,107.13505181931093
6.377358336,1.0006927173091853,106.98185726190451
6.37964544,1.000889716796798,106.8255613202974
6.381932544,1.0010302148507568,106.66680935963974
6.384219648,1.0011055273729335,106.50654080504324
6.386506752,1.0011107728294362,106.34573885650777
6.388793344,1.0010455823543902,106.18538129077976
6.391080448,1.000914093061359,106.02648044767244
6.393367552,1.0007244465527385,105.86993775085303
6.395654656,1.0004886921878273,105.7165210001551
6.39794176,1.0002216506444104,105.56676568302052
6.400228864,0.9999401504999941,105.42101087890185
6.402515968,0.9996621500517887,105.27937378381374
6.40480256,0.9994051480801173,105.14166348238528
6.407089664,0.99918550967453,105.00744575561022
6.409376768,0.9990171074182667,104.87608414645055
6.411663872,0.9989106096669997,104.74678982622689
6.413950976,0.9988729942947498,104.61854765363607
6.41623808,0.9989064605868568,104.49036925122992
6.418524672,0.9990090822195165,104.36127292054152
6.420811776,0.9991743162093808,104.23022615932109
6.42309888,0.9993916811850097,104.096463089102
6.425385984,0.9996474051222152,103.95924569677501
6.427673088,0.9999253717402093,103.81821039743242
6.429960192,1.000207855173262,103.6731371732804
6.432246784,1.000477089476016,103.52408000815173
6.434533888,1.0007160417720473,103.37134561784389
6.436820992,1.000909547653761,103.2155462006511
6.439108096,1.0010455283754724,103.0573764188258
6.4413952,1.0011151193036278,102.89773098168385
6.443682304,1.0011139814319017,102.73763558918462
6.445968896,1.0010422503321488,102.57809060675243
6.448256,1.0009043246067528,102.42009823734305
6.450543104,1.000708903504844,102.26451513701247
6.452830208,1.0004683619077017,102.11215508526567
6.455117312,1.0001978996078966,101.96352411928807
6.457404416,0.9999144962620757,101.81893147097503
6.459691008,0.999636068185017,101.67847884468716
6.461978112,0.9993804089903524,101.54193704721136
6.464265216,0.9991635139212673,101.40883645538074
6.46655232,0.998999423032995,101.2785640796338
6.468839424,0.9988982887313179,101.1502699155703
6.471126528,0.9988668449288363,101.02295456396092
6.473413632,0.998906918249173,100.89563128074035
6.475700224,0.9990161274140923,100.76724272320732
6.477987328,0.9991874743267675,100.63686260976202
6.480274432,0.9994101179639229,100.5036203644764
6.482561536,0.9996699840411166,100.36691021273478
6.48484864,0.9999506142478748,100.22630808702826
6.487135744,1.0002341980625866,100.08161994728414
6.489422336,1.0005029288455545,99.9329826776743
6.49170944,1.000739752692155,99.78067470578105
6.493996544,1.0009294901186765,99.62530267182534
6.496283648,1.0010604474389009,99.46763732042743
6.498570752,1.0011241383998903,99.30859847349183
6.500857856,1.0011164554402474,99.14917418092857
6.503144448,1.0010380740447062,98.99040375988585
6.505431552,1.0008938643678944,98.83328133734503
6.507718656,1.0006926331438184,98.67868023443704
6.51000576,1.0004473302681278,98.52732988839121
6.512292864,1.0001733804597486,98.37978679411988
6.514579968,0.9998881521100139,98.23635008176389
6.51686656,0.9996095136256123,98.0970130530898
6.519153664,0.9993552033171196,97.96159567796573
6.521440768,0.9991413939685589,97.82960682650332
6.523727872,0.998981668389654,97.70039481374995
6.526014976,0.9988862592581951,97.57303928380115
6.52830208,0.9988611216295498,97.44660725327131
6.530588672,0.9989078620757688,97.32006605836654
6.532875776,0.9990237954132126,97.19235332979284
6.53516288,0.9992012965151553,97.06257160309248
6.537449984,0.999429272394859,96.92981494568733
6.539737088,0.9996932316874559,96.79354274315439
6.542024192,0.9999765692548631,96.65332787784267
6.544310784,1.000261124266395,96.5089938684863
6.546597888,1.0005291631315312,96.36067225479546
6.548884992,1.0007635599005194,96.20874441636282
6.551172096,1.0009495308115337,96.05380793935204
6.5534592,1.001075186580235,95.89661729841055
6.555746304,1.0011329022569087,95.73814094368706
6.558033408,1.0011186009446682,95.57935449936188
6.56032,1.0010333920771133,95.42133258732642
6.562607104,1.000882553838927,95.26504527160547
6.564894208,1.000675571984888,95.11136834160493
6.567181312,1.000425505265904,94.96100454936246
6.569468416,1.0001482265904207,94.81454791560033
6.57175552,0.9998611275034481,94.67218318377543
6.574042112,0.9995824026578534,94.5339644926365
6.576329216,0.9993298256166794,94.39963761709662
6.57861632,0.9991192867858918,94.26870682370166
6.580903424,0.9989641927014541,94.14048954743679
6.583190528,0.998874536996789,94.0140617783866
6.585477632,0.998855932638256,93.88846295582711
6.587764224,0.9989096339204293,93.76265765007665
6.590051328,0.9990321942140952,93.63558958772127
6.592338432,0.9992159800597441,93.50631902167135
6.594625536,0.9994492788456715,93.37402618798852
6.59691264,0.9997173622372669,93.2381357996662
6.599199744,1.0000031618378782,93.09825474676336
6.601486336,1.0002886419544381,92.95420719371822
6.60377344,1.0005557855177651,92.80619142840084
6.606060544,1.0007876188076636,92.65460231960333
6.608347648,1.0009695372916478,92.50003619076197
6.610634752,1.0010898440262737,92.34328609668859
6.612921856,1.0011411708338123,92.18531971866399
6.615208448,1.0011201738306248,92.02715741575305
6.617495552,1.0010279722446278,91.86983645808135
6.619782656,1.0008705838490155,91.7143422711103
6.62206976,1.0006577246339696,91.56156189151702
6.624356864,1.0004030353660802,91.41218975545158
6.626643968,1.0001223507256904,91.26674500707517
6.628931072,0.9998335861918187,91.12545391711919
6.631217664,0.9995549773451726,90.98831185433963
6.633504768,0.9993042289410694,90.85505336694355
6.635791872,0.9990970748635546,90.72514115522345
6.638078976,0.9989469278330554,90.59785588896112
6.64036608,0.9988631272552928,90.47233492411479
6.642653184,0.998851258155722,90.34755353350302
6.644939776,0.9989120498590656,90.22237597158127
6.64722688,0.9990414668816859,90.09590940592307
6.649513984,0.9992315627058794,89.96711333606305
6.651801088,0.9994701347293954,89.83523232525316
6.654088192,0.9997421769871693,89.69965508076321
6.656375296,1.0000304376655795,89.5600278114124
6.658661888,1.000316680472741,89.41625382929844
6.660948992,1.00058269641779,89.26852254961643
6.663236096,1.0008118774839454,89.11719621466612
6.6655232,1.0009893748396173,88.96292384009881
6.667810304,1.0011041890819568,88.80659317619052
6.670097408,1.0011490835616061,88.6490991651305
6.672384,1.0011210866488478,88.4915357963164
6.674671104,1.001021832029994,88.33490068292593
6.676958208,1.0008578953574412,88.18018077622762
6.679245312,1.0006391784181174,88.02827852901899
6.681532416,1.0003797543671424,87.8798562612062
6.68381952,1.0000958738022216,87.73538026707259
6.686106112,0.9998056039235635,87.59511352179689
6.688393216,0.9995272197434557,87.45902269537308
6.69068032,0.9992784351081372,87.3267742667779
6.692967424,0.9990749337067464,87.19784559636693
6.695254528,0.9989298255605304,87.07150051884949
6.697541632,0.9988522540360997,86.94678370206537
6.699828224,0.9988472554376738,86.82270140525173
6.702115328,0.9989151095167941,86.69821645396229
6.704402432,0.9990514679247073,86.57224509714624
6.706689536,0.9992478940975236,86.4438841704327
6.70897664,0.9994918012956011,86.31233137493372
6.711263744,0.9997678629481983,86.17704503862063
6.713550848,1.0000584434239423,86.03764298518344
6.71583744,1.0003451891288082,85.89408561559235
6.718124544,1.000610090187303,85.74653673387957
6.720411648,1.0008361555464769,85.59544768600409
6.722698752,1.0010091716426932,85.44148858804252
6.724985856,1.001118364368765,85.28550681414265
6.72727296,1.0011564915977162,85.12847481132987
6.729559552,1.0011213961226082,84.97143330811487
6.731846656,1.0010150639614304,84.81543647009319
6.73413376,1.0008442842432126,84.66148067661572
6.736420864,1.0006197307961047,84.51038927335424
6.738707968,1.0003557180383431,84.36288052347601
6.740995072,1.0000686754665193,84.21940066771872
6.743281664,0.9997770348726123,84.08012491901898
6.745568768,0.9994990153100657,83.94502256938927
6.747855872,0.9992524781983616,83.81376567337908
6.750142976,0.9990529018755616,83.6857820383312
6.75243008,0.99891297704307,83.56029785468697
6.754717184,0.998841772291762,83.4363794694314
6.757003776,0.9988438154933268,83.31301150802729
6.75929088,0.9989188678713757,83.18906502714283
6.761577984,0.9990623433551937,83.06358907565702
6.763865088,0.9992650963985581,82.93558679431023
6.766152192,0.9995142661788964,82.80434570595109
6.768439296,0.9997941802413255,82.66925132140781
6.770725888,1.0000868789778201,82.53004887248412
6.773012992,1.0003741850384265,82.38661889746815
6.775300096,1.000637596055587,82.23923685424626
6.7775872,1.0008604807842811,82.08832368549432
6.779874304,1.0010288635638196,81.93462463025644
6.782161408,1.001132033243771,81.77896061012277
6.784448512,1.0011634131559144,81.62235140672944
6.786735104,1.001120990607007,81.46583555908998
6.789022208,1.0010074480540068,81.31044573528344
6.791309312,1.0008299312675597,81.15718864908091
6.793596416,1.000599550990612,81.00692788587409
6.79588352,1.0003307942467323,80.86028879783369
6.798170624,1.0000408775104765,80.71773964405472
6.800457216,0.9997479174084392,80.57944612494217
6.80274432,0.9994705332704612,80.44530624530151
6.805031424,0.9992263001937837,80.31500057438619
6.807318528,0.9990308086194906,80.18789502042877
6.809605632,0.9988964091717707,80.06325041945513
6.811892736,0.9988318519035958,79.94004815001325
6.814179328,0.9988409783599729,79.81730506137896
6.816466432,0.9989234427463558,79.69391709144544
6.818753536,0.9990739947347093,79.56885034832172
6.82104064,0.9992831252204882,79.4411795458941
6.823327744,0.999537544334429,79.310156968908
6.825614848,0.9998212321611782,79.17523206467928
6.82790144,1.0001160823765958,79.03615389517792
6.830188544,1.000403486492379,78.89284358149962
6.832475648,1.0006652441945962,78.74555767559853
6.834762752,1.0008849024323045,78.59481313177446
6.837049856,1.001048289416703,78.44130518603681
6.83933696,1.0011453182698216,78.28593514441266
6.841623552,1.001169715715144,78.12968997799437
6.843910656,1.0011198501034397,77.97364582728662
6.84619776,1.0009990353102678,77.81885345092792
6.848484864,1.000814740901652,77.66629620390673
6.850771968,1.0005784408626344,77.5167963533071
6.853059072,1.0003052869812585,77.37100383134441
6.855345664,1.0000123626057054,77.22934206035154
6.857632768,0.999718262859867,77.09199003297371
6.859919872,0.9994417215365556,76.95878177177195
6.862206976,0.9992000919599388,76.82936987231365
6.86449408,0.9990088835395139,76.70315112980468
6.866781184,0.9988801782101745,76.57927320737416
6.869068288,0.9988221946174201,76.45677521950822
6.87135488,0.9988387311801437,76.33460498270586
6.873641984,0.9989286768308582,76.21169169576136
6.875929088,0.9990864255362877,76.08699086001714
6.878216192,0.9993020235260894,75.95957493021695
6.880503296,0.999561614658889,75.82874936093252
6.8827904,0.9998490043197285,75.69393834398872
6.885076992,1.000145757152141,75.55491711405809
6.887364096,1.0004331819227654,75.41166875664062
6.8896512,1.000693170554363,75.2644588702615
6.891938304,1.000909152899241,75.11380099972666
6.894225408,1.001067535474145,74.96045274543135
6.896512512,1.001158134885646,74.80533887134311
6.898799104,1.0011754420680323,74.64942266367741
6.901086208,1.0011180921267155,74.49382943368943
6.903373312,1.0009898511273343,74.33960310463854
6.905660416,1.0007985558036894,74.18767923465835
6.90794752,1.0005566027569928,74.03894583528788
6.910234624,1.0002788775310636,73.89396012441132
6.912521216,0.9999832057719532,73.75320673008437
6.91480832,0.9996882009390258,73.61671178145161
6.917095424,0.9994124993500251,73.48440159924552
6.919382528,0.9991737580643522,73.35586842146454
6.921669632,0.9989869726685459,73.23044030797665
6.923956736,0.9988642552810297,73.10731178433568
6.926243328,0.9988131690921564,72.98546058128096
6.928530432,0.9988372136153314,72.86382847039718
6.930817536,0.9989347604468404,72.74130936370527
