freq,mag,phase
6.0,1.000881255106069,3.26081168537417
6.011544064,1.001072510739123,2.8854039862645053
6.023088128,1.0012113561001503,2.5077801818087706
6.034632192,1.0012912629506112,2.128618522615277
6.046176256,1.0013080507960972,1.7486780572264977
6.057719808,1.0012609653419091,1.3688005960104372
6.069263872,1.001152155405174,0.9897377025967726
6.080807936,1.0009868611259582,0.6122454378919189
6.092352,1.0007730510244284,0.2370030636193106
6.103896064,1.0005212333871225,-0.13536201676112525
6.115440128,1.00024345950805,-0.5045150902342338
6.126984192,0.9999535643294895,-0.8702129631221079
6.138528256,0.9996654582505536,-1.2323570636291226
6.15007232,0.9993932690896411,-1.5911059822251128
6.161616384,0.9991505941259533,-1.9466758377341369
6.173159936,0.998949121043244,-2.2995376510163927
6.184704,0.9987988363032638,-2.6502853763997547
6.196248064,0.9987073669629797,-2.999630548982048
6.207792128,0.9986790567480996,-3.348375865395818
6.219336192,0.9987154845360717,-3.6972543660602164
6.230880256,0.9988150021765108,-4.0471697796837285
6.24242432,0.9989727967262959,-4.398822031826478
6.253968384,0.9991809573650757,-4.7529969568327575
6.265512448,0.9994296738602086,-5.110233684247413
6.277056512,0.9997066669616826,-5.470960151352074
6.288600064,0.9999983230944784,-5.83542850605791
6.300144128,1.0002904756203066,-6.203802641678799
6.311688192,1.0005688077918977,-6.575968883296641
6.323232256,1.0008196745219935,-6.951633144027236
6.33477632,1.0010309013187413,-7.330404796768994
6.346320384,1.001191929034868,-7.711679848795963
6.357864448,1.0012950421583404,-8.094798728403783
6.369408512,1.0013349751737135,-8.478998219241024
6.380952576,1.0013096715274132,-8.863444089739325
6.39249664,1.0012205173595448,-9.247322573598009
6.404040192,1.0010715830938606,-9.629879262846812
6.415584256,1.0008699896174167,-10.010343162557684
6.42712832,1.0006255926007361,-10.38812559578943
6.438672384,1.0003503266930187,-10.762765811350098
6.450216448,1.000057553633332,-11.133943230280002
6.461760512,0.9997614799897688,-11.501543074457972
6.473304576,0.9994767105376984,-11.865549698425264
6.48484864,0.9992170756111964,-12.226252409415183
6.496392704,0.9989954444762739,-12.584061397970723
6.507936256,0.9988227477504045,-12.939447492201834
6.51948032,0.9987072881268009,-13.293171851075861
6.531024384,0.9986552932031826,-13.64590612839384
6.542568448,0.9986690743368382,-13.99860095445647
6.554112512,0.9987479535149144,-14.351990581418876
6.565656576,0.9988883862435114,-14.706946226487476
6.57720064,0.9990835542268031,-15.064180372896754
6.588744704,0.9993238696745752,-15.42437466981879
6.600288768,0.9995975250401059,-15.787972743239932
6.611832832,0.9998914419662103,-16.15533688440398
6.623376384,1.000190979935148,-16.526655512989247
6.634920448,1.0004816475948368,-16.90192442740374
6.646464512,1.000749259613471,-17.280871185912016
6.658008576,1.0009805542288477,-17.663163227604493
6.66955264,1.001164306011236,-18.048257528123596
6.681096704,1.0012915589346967,-18.43550320004521
6.692640768,1.001355926404677,-18.824115177616015
6.704184832,1.0013542020764516,-19.213335342909822
6.715728896,1.0012863704463921,-19.602242678194873
6.72727296,1.0011557478782138,-19.99009322441861
6.738816512,1.0009682401498528,-20.376074217231203
6.750360576,1.0007333677376227,-20.759583659068312
6.76190464,1.000462235459034,-21.140016536948593
6.773448704,1.0001681704857353,-21.51702995917791
6.784992768,0.9998653289427776,-21.89037264020678
6.796536832,0.9995686780357294,-22.26010714838071
6.808080896,0.9992927536477313,-22.62630643166335
6.81962496,0.9990509036302152,-22.989380217496496
6.831169024,0.9988551166875995,-23.34980575830693
6.842713088,0.9987151796551441,-23.70825374703452
6.85425664,0.998637955580491,-24.065435863221936
6.865800704,0.9986273241891611,-24.42221544350099
6.877344768,0.9986838775611843,-24.77944210458744
6.888888832,0.9988050163763911,-25.137937665191682
6.900432896,0.998984825526873,-25.498559680598245
6.91197696,0.9992146231646745,-25.861932507894437
6.923521024,0.9994833648226545,-26.22862255310026
6.935065088,0.9997776933513165,-26.59908341562538
6.946609152,1.0000833289614124,-26.973545741571762
6.958152704,1.000385354634075,-27.352021203407716
6.969696768,1.0006689924629018,-27.734418196724654
6.981240832,1.000920539816099,-28.120353039816532
6.992784896,1.0011274552742304,-28.509419938625363
7.00432896,1.0012797908993605,-28.900930551223315
7.015873024,1.0013698056247828,-29.294173754931805
7.027417088,1.0013931039125938,-29.688300242155524
7.038961152,1.0013485782111724,-30.082495412959027
7.050505216,1.0012383196378798,-30.475894395103417
7.06204928,1.0010673749382135,-30.867687391419462
7.073592832,1.0008439179692636,-31.257132305700754
7.085136896,1.000579087655815,-31.643671690553333
7.09668096,1.0002854693579175,-32.02686065001161
7.108225024,0.9999774546475675,-32.40635789406655
7.119769088,0.999669982263123,-32.78212613206579
7.131313152,0.9993781736936823,-33.15424011462286
7.142857216,0.999116422925797,-33.5229816362483
7.15440128,0.998897258763206,-33.888807766812356
7.165945344,0.9987317110492732,-34.25236514895322
7.177489408,0.9986281225072913,-34.6143615006356
7.18903296,0.9985914842499659,-34.97560279236564
7.200577024,0.9986237070589122,-35.33696943391949
7.212121088,0.9987233628015169,-35.69936242214534
7.223665152,0.9988857713823424,-36.063558071348936
7.235209216,0.9991027434975572,-36.43040047974593
7.24675328,0.9993641335070189,-36.800410227789385
7.258297344,0.9996571439041595,-37.174128483442104
7.269841408,0.9999672817511105,-37.551895618347004
7.281385472,1.0002795545235614,-37.933779583997776
7.292929536,1.0005786620161696,-38.319757833526836
7.304473088,1.0008500694926714,-38.70952684685327
7.316017152,1.001080551851692,-39.10266593577292
7.327561216,1.0012586445308926,-39.498570172411526
7.33910528,1.0013756461103858,-39.89659323250281
7.350649344,1.001425794978821,-40.29583447367382
7.362193408,1.0014065671117403,-40.695456107723466
7.373737472,1.00131872087731,-41.09462986440179
7.385281536,1.0011665226465083,-41.49244082849884
7.3968256,1.0009570732124347,-41.88813603069223
7.408369664,1.0007006646907093,-42.28111882150167
7.419913216,1.0004096216375085,-42.67075815115584
7.43145728,1.0000980167153346,-43.05677764945118
7.443001344,0.9997810898504204,-43.438985763017264
7.454545408,0.9994743401093802,-43.8173840687764
7.466089472,0.9991927002799283,-44.19223932048009
7.477633536,0.9989501324606465,-44.56386759203635
7.4891776,0.9987583467876542,-44.93292430466756
7.500721664,0.9986270478122448,-45.30008009113547
7.512265728,0.9985626208697669,-45.6661561342012
7.52380928,0.9985684374430169,-46.03202840878207
7.535353344,0.998644288556458,-46.398614484090835
7.546897408,0.9987866260488865,-46.76673187972822
7.558441472,0.9989885791717072,-47.137210406234004
7.569985536,0.9992403311587811,-47.510769124953214
7.5815296,0.9995296119323417,-47.88797703904453
7.593073664,0.9998424894850384,-48.26916116617352
7.604617728,1.0001634719728703,-48.65462760207852
7.616161792,1.0004771382022526,-49.04428600477406
7.627705856,1.0007682498625081,-49.4379736844193
7.639249408,1.0010222560666902,-49.835317688845784
7.650793472,1.00122698704093,-50.235768161599474
7.662337536,1.0013722214535117,-50.63865864585466
7.6738816,1.0014509456229848,-51.043172032810006
7.685425664,1.001459029603125,-51.44843689277866
7.696969728,1.001396280748497,-51.85355692151766
7.708513792,1.0012652083315772,-52.25764724632337
7.720057856,1.0010724446074413,-52.65986814721631
7.73160192,1.0008267832702842,-53.05957337551271
7.743145984,1.0005405790918322,-53.45604076365219
7.754689536,1.0002274612161652,-53.848907523604346
7.7662336,0.9999026385960464,-54.23793989273124
7.777777664,0.9995819409413506,-54.62303828467962
7.789321728,0.9992809887391242,-55.00434178347139
7.800865792,0.9990147516504797,-55.38226019697156
7.812409856,0.9987960031204487,-55.75719451318874
7.82395392,0.9986357422154459,-56.12994087864972
7.835497984,0.9985418202154288,-56.50121943679802
7.847042048,0.9985192657636236,-56.871898188971784
7.858586112,0.9985688400083546,-57.242970093642185
7.870129664,0.9986884098164059,-57.61529618788444
7.881673728,0.998872490548284,-57.98973008351234
7.893217792,0.9991120086538938,-58.367035443080006
7.904761856,0.9993952392080365,-58.74785924807914
7.91630592,0.9997088043965037,-59.132702111474096
7.927849984,1.000036937875769,-59.52179725868485
7.939394048,1.0003639042126498,-59.91527693042486
7.950938112,1.0006738042950332,-60.3129589135963
7.962482176,1.0009515053482327,-60.71464451647701
7.974025728,1.0011834381787255,-61.119714906975666
7.985569792,1.0013580772369632,-61.52760023985365
7.997113856,1.0014670432959258,-61.93749921723904
8.00865792,1.001504801670754,-62.34852776700383
8.020201984,1.0014693179853469,-62.75978910071581
8.031746048,1.0013623647766745,-63.17035943620721
8.043290112,1.0011889081236984,-63.579378296049335
8.054834176,1.000957135285049,-63.98602724329695
8.06637824,1.0006782855528318,-64.38964942773578
8.077922304,1.00036595137494,-64.78975334652381
8.089465856,1.0000350218863239,-65.18596595943302
8.10100992,0.9997018561328349,-65.5781266049385
8.112553984,0.999382404452469,-65.96633434152378
8.124098048,0.9990924545215973,-66.35087905874687
8.135642112,0.9988463450270014,-66.73216154185002
8.147186176,0.9986560389297483,-67.11085842258996
8.15873024,0.9985310086662031,-67.48771521227293
8.170274304,0.9984774606862011,-67.86362075457016
8.181818368,0.9984982173870061,-68.23950373896407
8.193362432,0.9985924145235103,-68.61629291582511
8.204905984,0.998755412013686,-68.99490892882774
8.216450048,0.9989797404037973,-69.37619492160493
8.227994112,0.9992542929478416,-69.76084385757987
8.239538176,0.9995657049961857,-70.14942535463113
8.25108224,0.9998990385163263,-70.5422992033256
8.262626304,1.0002379132440926,-70.93966075972311
8.274170368,1.0005659916047813,-71.34148919001181
8.285714432,1.0008670637954966,-71.74750974401722
8.297258496,1.0011266235036436,-72.15729660178468
8.30880256,1.0013319419859505,-72.57024823297762
8.320346112,1.0014727238230097,-72.9856011982224
8.331890176,1.0015423210486503,-73.40252760344406
8.34343424,1.0015370948439648,-73.82007090310653
8.354978304,1.0014569909074695,-74.23731765729492
8.366522368,1.001305956860034,-74.65334552695764
8.378066432,1.0010910359673941,-75.06723534043236
8.389610496,1.0008226943576584,-75.47830632164253
8.40115456,1.000513542699043,-75.88593215891989
8.412698624,1.0001787919191703,-76.28965636102348
8.424242176,0.9998346241351388,-76.68931365592353
8.43578624,0.9994977918342659,-77.08482479825297
8.447330304,0.9991847068893844,-77.47639999778924
8.458874368,0.9989106706191839,-77.86443625937105
8.470418432,0.9986892235847686,-78.24951301466395
8.481962496,0.9985312469733398,-78.63235400221922
8.49350656,0.9984447343167686,-79.01379958500523
8.505050624,0.9984339039052359,-79.39482638413517
8.516594688,0.9984994131111441,-79.77637666049705
8.528138752,0.9986384538816032,-80.15946750048369
8.539682304,0.9988441971390694,-80.54490539737786
8.551226368,0.9991068015365865,-80.93353986615786
8.562770432,0.9994135267339971,-81.32601169119235
8.574314496,0.9997495765241059,-81.72275966213503
8.58585856,1.0000984486087832,-82.12408027972108
8.597402624,1.0004434061287921,-82.53002868540176
8.608946176,1.0007674566167266,-82.94044210011619
8.620490752,1.0010548845485463,-83.35497206321543
8.632034304,1.001291754374793,-83.7730021279431
8.64357888,1.0014662533972025,-84.19392027542902
8.655122432,1.0015699110302785,-84.61680276719292
8.666667008,1.0015976040144183,-85.04073507427842
8.67821056,1.0015476707967004,-85.46480426108526
8.689755136,1.0014223714470694,-85.8879586109784
8.701298688,1.001227730199632,-86.30937588136321
8.71284224,1.0009728951141086,-86.72811216961365
8.724386816,1.0006702795484193,-87.14360732655626
8.735930368,1.0003342915914344,-87.55524403260804
8.747474944,0.9999812571040284,-87.96272019970813
8.759018496,0.9996283707288935,-88.36593871540896
8.770563072,0.9992926546203881,-88.76496997443152
8.782106624,0.9989906894514531,-89.16013993677177
8.7936512,0.9987372315832461,-89.55197831706103
8.805194752,0.9985448018604718,-89.94118502065896
8.816739328,0.9984227682778188,-90.32857664017328
8.82828288,0.9983775284277273,-90.7150654888738
8.839826432,0.9984112652563629,-91.10169646386363
8.851371008,0.9985226515069427,-91.48945380893697
8.86291456,0.9987062777339658,-91.87926253645867
8.874459136,0.998953423174581,-92.27203319962712
8.886002688,0.9992522573703324,-92.66847960016854
8.897547264,0.9995880839862492,-93.06918822724126
8.909090816,0.9999448208410431,-93.4745135824073
8.920635392,1.0003050618431977,-93.88460395920765
8.932178944,1.0006512938544287,-94.29938624145771
8.943722496,1.0009666827321149,-94.71863474497549
8.955267072,1.0012359748838164,-95.14177639543813
8.966810624,1.0014456685435043,-95.56819955057244
8.9783552,1.001585723865942,-95.9970944316235
8.989898752,1.0016491508524077,-96.42749261993053
9.001443328,1.001632690702563,-96.85846793295997
9.01298688,1.0015368538581781,-97.28894740747809
9.024531456,1.0013662789659385,-97.7179968302347
9.036075008,1.0011288828824376,-98.14469817398492
9.04761856,1.0008360599011206,-98.56830175112368
9.059163136,1.0005019149611045,-98.98813735976755
9.070706688,1.000142487876722,-99.4037980893326
9.082251264,0.9997752671560654,-99.815075820661
9.093794816,0.999417991848456,-100.22197719960388
9.105339392,0.9990882454255328,-100.62474138851864
9.116882944,0.9988020110522374,-101.02376525916353
9.12842752,0.9985734711621999,-101.41969471799113
9.139971072,0.9984137612253119,-101.81336279003939
9.151515648,0.9983310773519327,-102.20568139963308
9.1630592,0.9983295695694533,-102.59764878244665
9.174602752,0.998409417115302,-102.99033229829777
9.186147328,0.9985669676603365,-103.38470668883205
9.19769088,0.9987947366086403,-103.7817593272776
9.209235456,0.9990818517670013,-104.1822746263096
9.220779008,0.9994142833873002,-104.58693149943662
9.232323584,0.9997761494632725,-104.99624616559704
9.243867136,1.0001497399505785,-105.41044849635512
9.255411712,1.0005170007549777,-105.82959871244032
9.266955264,1.0008600542535295,-106.25347046943426
9.278498816,1.0011622412838526,-106.68166958836677
9.290043392,1.0014086843697632,-107.11358631076371
9.301586944,1.0015874871662507,-107.54842281594148
9.31313152,1.0016896235044324,-107.98530255165431
9.324675072,1.0017102083169527,-108.42320180221128
9.336219648,1.0016477307017124,-108.86110369077568
9.3477632,1.0015053073019986,-109.29795702124026
9.359307776,1.0012893974144395,-109.73278664958409
9.370851328,1.001010305221113,-110.1647246714552
9.38239488,1.000681519221273,-110.59306280201062
9.393939456,1.0003185748297727,-111.01726739573797
9.405483008,0.9999393060912165,-111.43696519938386
9.417027584,0.9995620071649776,-111.85210926390552
9.428571136,0.9992048750958212,-112.26280721708702
9.440115712,0.9988855075116473,-112.66940751656021
9.451659264,0.9986194510040298,-113.07246859813498
9.46320384,0.9984199387313809,-113.47277187047071
9.474747392,0.9982967767374966,-113.87124082428481
9.486291968,0.9982562386677172,-114.26884038585577
9.49783552,0.9983005189518991,-114.66665157907751
9.509379072,0.9984277784092214,-115.06576292304842
9.520923648,0.9986317685483278,-115.46719203777134
9.5324672,0.998903001848773,-115.8718569835511
9.544011776,0.9992282866042396,-116.2805508023021
9.555555328,0.9995919696153373,-116.69381048757239
9.567099904,0.9999765184217059,-117.11204358116503
9.578643456,1.0003631471434793,-117.53540439632641
9.590188032,1.000733260825166,-117.96382662078497
9.601731584,1.0010687452754812,-118.39693509240105
9.613275136,1.001353295864053,-118.83419987912153
9.624819712,1.0015730203594138,-119.27493711489595
9.636363264,1.001717012756826,-119.71820849677526
9.64790784,1.0017782509516933,-120.1630502365488
9.659451392,1.0017535091513683,-120.6083642094984
9.670995968,1.0016436001716833,-121.05309929444903
9.68253952,1.0014537340953087,-121.49619328373302
9.694084096,1.0011929527483339,-121.93668419290155
9.705627648,1.0008734873988148,-122.37376315814421
9.717172224,1.0005108038691106,-122.80678573068114
9.728715776,1.0001222214649035,-123.23527644939641
9.740259328,0.9997265272575023,-123.65902289179748
9.751803904,0.9993429997182882,-124.0780361128113
9.763347456,0.9989902679872851,-124.49259358827561
9.774892032,0.998685533595911,-124.90316334722237
9.786435584,0.9984438370553369,-125.31048053166909
9.79798016,0.9982772114162286,-125.71538378140148
9.809523712,0.9981939811818628,-126.11888334943518
9.821068288,0.9981982792314777,-126.52209992616098
9.83261184,0.9982903158279308,-126.92610580613474
9.844155392,0.998465756940747,-127.3320230416671
9.855699968,0.9987162900335943,-127.7408703986867
9.86724352,0.9990301160642009,-128.15351202070434
9.878788096,0.9993918600990673,-128.5706432480193
9.890331648,0.9997842213269256,-128.99281444473945
9.901876224,1.0001882233805581,-129.42026113845188
9.913419776,1.0005841917644798,-129.8530173615556
9.924964352,1.0009530085705882,-130.29086001672582
9.936507904,1.001276561344494,-130.73330952186208
9.948051456,1.0015393578600287,-131.17974678983185
9.959596032,1.001728366806782,-131.6292868916592
9.971139584,1.0018340796364806,-132.08096542046084
9.98268416,1.0018514482516874,-132.53367664710296
9.994227712,1.0017791919893317,-132.9862863653213
10.005772288,1.0016205615812925,-133.43773387158726
10.01731584,1.001382876029273,-133.8869206556447
10.028860416,1.0010775396497966,-134.33294102288139
10.040403968,1.0007190101259782,-134.77501873016053
10.051948544,1.0003245710548063,-135.2125819955934
10.063492096,0.9999130586751364,-135.6452826721532
10.075035648,0.9995044372112286,-136.07299435154354
10.086580224,0.9991186366387929,-136.4958711417627
10.098123776,0.9987743503832535,-136.91434459535367
10.109668352,0.9984885299048852,-137.32898887754436
10.121211904,0.9982753318741271,-137.74066893385827
10.13275648,0.9981452299241728,-138.15035404108508
10.144300032,0.9981049821785745,-138.55915250749356
10.155844608,0.998156704092904,-138.96821395178597
10.16738816,0.9982981749108115,-139.37872502840148
10.178931712,0.998522850160644,-139.79173349520076
10.190476288,0.9988199192376074,-140.20829717147643
10.20201984,0.9991753337780451,-140.6291956860426
10.213564416,0.99957186409674,-141.055106988799
10.225107968,0.9999903788030099,-141.4864144453157
10.236652544,1.0004106510917905,-141.92328365957175
10.248196096,1.0008123002744016,-142.36558560800054
10.259740672,1.0011758982523233,-142.81296889096794
10.271284224,1.0014836828912739,-143.26485411032945
10.282827776,1.0017206012779283,-143.7204568805288
10.294372352,1.001874983020438,-144.17879121686633
10.305915904,1.0019391877119108,-144.63876097686367
10.31746048,1.0019097916451039,-145.09923952726265
10.329004032,1.001787929520408,-145.5590151686317
10.340548608,1.0015791142163963,-146.0169839902408
10.35209216,1.001293198876928,-146.4720927713379
10.363636736,1.0009436696113918,-146.92345029205183
10.375180288,1.0005473703125396,-147.37034820018883
10.386724864,1.000123077814671,-147.81229372169125
10.398268416,0.9996913296524953,-148.24905026752623
10.409811968,0.999273120419192,-148.68063071253457
10.421356544,0.9988887520185,-149.10733196922428
10.432900096,0.9985569793643022,-149.5296986529193
10.444444672,0.9982940925743322,-149.94847789052514
10.455988224,0.9981131899379748,-150.36461506756316
10.4675328,0.998023358782083,-150.77922467492397
10.479076352,0.9980291996196885,-151.1934747429705
10.490620928,0.9981308344478317,-151.60862020509938
10.50216448,0.9983236124313549,-152.02580913082951
10.513708032,0.9985984093993152,-152.4461784308019
10.525252608,0.9989422822567459,-152.8707075370409
10.53679616,0.9993385133023835,-153.30013538655479
10.548340736,0.9997682107127741,-153.73502118840224
10.559884288,1.0002105488486517,-154.17567711504924
10.571428864,1.0006441828807608,-154.622126866417
10.582972416,1.001048100773932,-155.07411638886538
10.594516992,1.0014026545607926,-155.53113223321162
