freq,mag,phase
6.0,1.0001164967788023,178.27358062778833
6.002285568,1.000175830695039,178.1194107219606
6.004571648,1.000223681800887,177.96448426373897
6.006857216,1.000258041030828,177.80901844957953
6.009142784,1.0002767543240891,177.65312390400496
6.011428352,1.0002786956178542,177.49717645538993
6.013714432,1.0002636469166786,177.3412989468791
6.016,1.0002325049793745,177.18581684928867
6.018285568,1.0001873068174616,177.03091452138509
6.020571648,1.0001309787104236,176.87674701148728
6.022857216,1.0000667957662313,176.72351100021322
6.025142784,0.999999095065156,176.57126837433702
6.027428352,0.999931973600736,176.42002004619332
6.029714432,0.9998698592334678,176.2697415948206
6.032,0.9998164264352728,176.12029513681512
6.034285568,0.9997751271197043,175.97160131434308
6.036571648,0.9997488607219158,175.8234185851764
6.038857216,0.999738962799096,175.675548076148
6.041142784,0.9997462311904062,175.52768674649113
6.043428352,0.9997702502934895,175.37966838741872
6.045714432,0.9998094046888469,175.2311857284435
6.048,0.999861330675885,175.08210791683297
6.050285568,0.9999227039638477,174.93220473342006
6.052571648,0.9999896009647734,174.78145930645434
6.054857216,1.0000579839791348,174.6297055646959
6.057142784,1.0001233077238352,174.47698815383686
6.059428352,1.0001816248469466,174.32344883145544
6.061714432,1.0002290367580602,174.16915132826202
6.064,1.0002626855901573,174.0143022300909
6.066285568,1.000280475883593,173.85909444155766
6.068571648,1.0002811770061029,173.70378057385088
6.070857216,1.000264692693154,173.5486209552487
6.073142784,1.0002321414118325,173.3938438739219
6.075428352,1.0001855655029588,173.239645832928
6.077714432,1.0001278511394476,173.08623382184348
6.08,1.0000626122350165,172.9337954992449
6.082285568,0.9999940235570104,172.78227861404554
6.084571648,0.9999263423421549,172.63184109452735
6.086857216,0.9998639744486492,172.48233177005687
6.089142784,0.9998106836139381,172.33373392096277
6.091428352,0.9997700191845998,172.18582274232625
6.093714432,0.9997444457416481,172.03844233854886
6.096,0.9997357436696711,171.89133752183318
6.098285568,0.9997444258449674,171.74422594896555
6.100571648,0.9997697926676514,171.5969184844516
6.102857216,0.9998104682972676,171.4491979019428
6.105142784,0.9998637335954562,171.30077708463577
6.107428352,0.9999263676076183,171.15157156699647
6.109714432,0.9999944441420594,171.00145042017542
6.112,1.0000634250478508,170.85035666817456
6.114285568,1.0001291841178017,170.69830181411413
6.116571648,1.0001875084262617,170.5453865758439
6.118857216,1.0002345665076002,170.39175788942467
6.121142784,1.0002675121492584,170.23752516740257
6.123428352,1.000284192759606,170.08299808045652
6.125714432,1.0002836276967562,169.92836130045052
6.128,1.0002657574879787,169.77389894792074
6.130285568,1.000231741626077,169.61981910478875
6.132571648,1.0001836443124728,169.46639452333966
6.134857216,1.0001246591504849,169.31376181177302
6.137142784,1.0000582104433824,169.1620737504524
6.139428352,0.9999886732436304,169.0113935766042
6.141714432,0.9999205314820839,168.86173464700653
6.144,0.9998578610292048,168.7130901161125
6.146285568,0.99980491590188,168.56528511326823
6.148571648,0.9997648193252737,168.41818327303628
6.150857216,0.9997401489157175,168.27158916028066
6.153142784,0.9997325477393846,168.12527443222837
6.155428352,0.9997425783983851,167.97896918529258
6.157714432,0.9997695264252372,167.83239970810018
6.16,0.9998116573105867,167.68539653648133
6.162285568,0.9998664606070304,167.53768195242978
6.164571648,0.9999302989926838,167.38915336414914
6.166857216,0.9999993650590726,167.23969222328492
6.169142784,1.0000690945417838,167.08926559881186
6.171428352,1.000135161627201,166.93788644117822
6.173714432,1.0001934304973783,166.7856079349427
6.176,1.000240187297788,166.63262777827322
6.178285568,1.0002722883627218,166.47906974438692
6.180571648,1.0002880582962916,166.32520988654952
6.182857216,1.0002861167083887,166.17127090471982
6.185142784,1.0002666928355546,166.01750434033258
6.187428352,1.0002311239664536,165.8641785742922
6.189714432,1.0001814885354525,165.71150925432323
6.192,1.000121147292375,165.5596244956977
6.194285568,1.0000534579745777,165.4087448583348
6.196571648,0.9999831349493343,165.25888281785308
6.198857216,0.9999144223777043,165.11004837630804
6.201142784,0.9998517103054982,164.96222276919852
6.203428352,0.9997989295661598,164.81522689724315
6.205714432,0.9997593987418246,164.6689800542667
6.208,0.9997358073031609,164.52319117798453
6.210285568,0.9997295052075749,164.37765306265598
6.212571648,0.999740986320823,164.23213948884785
6.214857216,0.9997694498155503,164.08633167683976
6.217142784,0.9998131155421539,163.94005506597114
6.219428352,0.999869348404425,163.79306421078192
6.221714432,0.9999344361860701,163.64524639092429
6.224,1.0000045864653533,163.49645830250836
6.226285568,1.0000749312186752,163.34669414267506
6.228571648,1.0001413377728487,163.19595963308294
6.230857216,1.000199593360483,163.04433151190284
6.233142784,1.0002457738758805,162.89200172250497
6.235428352,1.0002771527527516,162.73912800947303
6.237714432,1.0002916552864776,162.58593584111128
6.24,1.0002883537870493,162.43272820772313
6.242285568,1.0002675294868597,162.27969268744573
6.244571648,1.0002303447240715,162.12708780254596
6.246857216,1.000179345791343,161.97517443302
6.249142784,1.0001173539245434,161.82413675444215
6.251428352,1.0000486603630845,161.6740418239701
6.253714432,0.9999774114435442,161.525036046599
6.256,0.9999081473095194,161.37701520790404
6.258285568,0.9998454037600998,161.23001982621525
6.260571648,0.9997927786306164,161.08389065869974
6.262857216,0.9997539769443838,160.93845761238114
6.265142784,0.9997313718269318,160.793496555085
6.267428352,0.9997264443033915,160.64878221574597
6.269714432,0.9997392817863766,160.50403570256745
6.272,0.9997694042123249,160.359016346362
6.274285568,0.9998146360723712,160.2134474057304
6.276571648,0.9998723958134841,160.0672031593124
6.278857216,0.9999389465782068,159.9200626569071
6.281142784,1.0000099327177878,159.7719745241466
6.283428352,1.000081015431546,159.62287402660962
6.285714432,1.0001476812172474,159.47278096103412
6.288,1.0002058315084699,159.32183268886106
6.290285568,1.000251489014784,159.1701708178531
6.292571648,1.0002819968169328,159.01796217617314
6.294857216,1.0002953008314601,158.86549571671182
6.297142784,1.0002906148778996,158.7129493333327
6.299428352,1.0002680783456777,158.56066871479246
6.301714432,1.0002293501925164,158.408853831278
6.304,1.0001765827706157,158.25769397779433
6.306285568,1.0001132858825434,158.107446883565
6.308571648,1.0000435419615952,157.9582211213065
6.310857216,0.999971349438383,157.81001933953624
6.313142784,0.9999016667954672,157.66286553080343
6.315428352,0.9998387027591134,157.51670241058358
6.317714432,0.9997866590441469,157.37141550601245
6.32,0.9997486648697375,157.22684791369352
6.322285568,0.9997270487070307,157.0827112822231
6.324571648,0.9997233639906786,156.93879492790842
6.326857216,0.9997378556619374,156.7948522585811
6.329142784,0.9997696303158856,156.65056108768985
6.331428352,0.9998164119222923,156.50577148186122
6.333714432,0.9998758820670867,156.36023915511493
6.336,0.99994355057913,156.2138118918993
6.338285568,1.0000155434113411,156.06641897804377
6.340571648,1.000087420356992,155.91796135961053
6.342857216,1.0001543198198906,155.7685431670709
6.345142784,1.0002122452840383,155.61826971773655
6.347428352,1.0002572994170988,155.4672619161196
6.349714432,1.0002869319585939,155.31577006021314
6.352,1.0002990223351063,155.16395948113424
6.354285568,1.0002926283420557,155.012152625032
6.356571648,1.000268573526706,154.86060917557492
6.358857216,1.000228081251937,154.70954296469435
6.361142784,1.0001738317730813,154.5592188923546
6.363428352,1.000109045596434,154.40977778473228
6.365714432,1.000038126079596,154.26134471610195
6.368,0.9999650954842622,154.11398816224664
6.370285568,0.9998949778073624,153.96769908124298
6.372571648,0.9998319759261057,153.82238159685406
6.374857216,0.9997802738500142,153.67798504408222
6.377142784,0.9997430592109527,153.53423973544986
6.379428352,0.99972256702691,153.39096173629517
6.381714432,0.99972039145032,153.24786281701242
6.384,0.9997365369873092,153.10466733043552
6.386285568,0.9997699661143876,152.96117705533914
6.388571648,0.9998185023348247,152.81712986534157
6.390857216,0.999879335478214,152.6723230516035
6.393142784,0.9999484113756878,152.52660466300208
6.395428352,1.000021430151219,152.37984307243545
6.397714432,1.00009380527376,152.23209930636332
6.4,1.0001609236524578,152.0833750886097
6.402285568,1.0002186287525912,151.93375097773495
6.404571648,1.0002631061185094,151.78341856538668
6.406857216,1.0002916785865958,151.6325935760584
6.409142784,1.0003023138855012,151.48148218390347
6.411428352,1.0002946605914567,151.3304365042646
6.413714432,1.000268889809869,151.17961263666737
6.416,1.000226650159825,151.02934925409528
6.418285568,1.0001708138579657,150.8797907052557
6.420571648,1.0001045692652681,150.73115289150144
6.422857216,1.0000323126220796,150.5835548576666
6.425142784,0.9999586088065506,150.43707151514207
6.427428352,0.9998880528826468,150.29163839996548
6.429714432,0.9998251254949378,150.1472269823786
6.432,0.9997738523690678,150.0036521061407
6.434285568,0.999737574285845,149.86074055040407
6.436571648,0.9997183375462164,149.71828846273343
6.438857216,0.999717495209525,149.5760091454557
6.441142784,0.9997352682114538,149.43364408185838
6.443428352,0.9997704302867225,149.29093177456133
6.445714432,0.9998207892885272,149.14760727416052
6.448,0.9998830645042077,149.0035127943939
6.450285568,0.9999534417426204,148.85848921736047
6.452571648,1.0000275879480023,148.71244011124094
6.454857216,1.000100532844545,148.56534763346036
6.457142784,1.0001679439688447,148.41730147408796
6.459428352,1.000225304113018,148.2683264634218
6.461714432,1.0002691814975366,148.11868047396555
6.464,1.0002965719286865,147.96854355989296
6.466285568,1.0003059327210506,147.81814371406716
6.468571648,1.0002965234871954,147.66779108488237
6.470857216,1.000268931584256,147.51774065343554
6.473142784,1.000225006422649,147.3682066385465
6.475428352,1.0001674700077325,147.2194746625767
6.477714432,1.0000998352027073,147.07168844646594
6.48,1.0000263825971376,146.92490533901642
6.482285568,0.9999519110998673,146.7792949325197
6.484571648,0.99988092922413,146.63472950851403
6.486857216,0.9998181711584877,146.49115307515964
6.489142784,0.9997674224424696,146.34845932989447
6.491428352,0.9997319966578396,146.20640192435252
6.493714432,0.9997139901315321,146.0647947676642
6.496,0.9997148161725385,145.92335505239092
6.498285568,0.9997341907172433,145.78176573201517
6.500571648,0.9997711218656898,145.63980387284454
6.502857216,0.9998232694630287,145.49724112218266
6.505142784,0.9998871463136902,145.35383821673932
6.507428352,0.9999588587686631,145.20951076453142
6.509714432,1.0000338839536806,145.0641296799031
6.512,1.0001075867550098,144.9177288779328
6.514285568,1.0001750207414986,144.7703229332221
6.516571648,1.0002321091141826,144.62203006097016
6.518857216,1.000275045637624,144.4730659532391
6.521142784,1.000301477326608,144.32358338704822
6.523428352,1.0003094156689352,144.17391829589226
6.525714432,1.0002983026802763,144.02428178270623
6.528,1.0002689098920325,143.87497987944153
6.530285568,1.000223260274324,143.7262343603644
6.532571648,1.0001639469355588,143.57828988260223
6.534857216,1.000094846489243,143.43131315307704
6.537142784,1.0000202439709625,143.28541107182298
6.539428352,0.9999449541404596,143.14063986709442
6.541714432,0.9998737406319246,142.99691995253878
6.544,0.9998109947301697,142.85424337902455
6.546285568,0.9997607999664312,142.7124194214299
6.548571648,0.9997262798702755,142.57121601479793
6.550857216,0.9997096829275277,142.43044862216294
6.553142784,0.9997121845391174,142.2897813157882
6.555428352,0.9997334195634434,142.14900230442143
6.557714432,0.9997720850649384,142.0078213121882
6.56,0.999826035370848,141.86600708826475
6.562285568,0.9998915996237113,141.72330865247838
6.564571648,0.999964718470778,141.5796582190284
6.566857216,1.0000405729340869,141.4349809799658
6.569142784,1.0001146840610744,141.2892143007044
6.571428352,1.0001823052271508,141.1424597666274
6.573714432,1.0002389393999729,140.99484602960837
6.576,1.0002812000001193,140.84651658854898
6.578285568,1.000306319974885,140.69774013344426
6.580571648,1.0003126741427875,140.5487866723625
6.582857216,1.000299957108331,140.39985715144462
6.585142784,1.0002687142042999,140.25131008771868
6.587428352,1.0002211612323093,140.1033694670578
6.589714432,1.00016013419557,139.95619439936326
6.592,1.000089624975544,139.81006123262623
6.594285568,1.000013912661043,139.66500980403103
6.596571648,0.9999378647777248,139.52108467820452
6.598857216,0.9998663036856765,139.37824141300607
6.601142784,0.9998037118012003,139.23643012682626
6.603428352,0.9997541303726849,139.09544548709076
6.605714432,0.9997206743255128,138.95512693402418
6.608,0.9997056514011239,138.81514206974165
6.610285568,0.9997096919052658,138.6753452556498
6.612571648,0.9997327606515813,138.53534195288586
6.614857216,0.9997733572522487,138.3948880492442
6.617142784,0.9998291015276412,138.2537876328904
6.619428352,0.9998962033194031,138.1118335216704
6.621714432,0.9999706562976293,137.9688631714123
6.624,1.0000475539186402,137.82485708552392
6.626285568,1.0001222154454397,137.67975366687014
6.628571648,1.0001896994969905,137.53362702258036
6.630857216,1.0002459613829582,137.38663792546893
6.633142784,1.00028730129666,137.23899695507606
6.635428352,1.0003111670922455,137.09091956011045
6.637714432,1.0003158562577736,136.94262509797437
6.64,1.0003013770384386,136.79444948242227
6.642285568,1.0002682681952977,136.64664796295372
6.644571648,1.0002187891336547,136.4994686945994
6.646857216,1.000156030092752,136.35313835631663
6.649142784,1.0000838980753854,136.20780967387964
6.651428352,1.0000071847068015,136.0635885055775
6.653714432,0.9999303116071332,135.92053077035186
6.656,0.9998585035522851,135.7785639233922
6.658285568,0.9997961939762223,135.63759716364214
6.660571648,0.9997473221444257,135.49750859712597
6.662857216,0.9997149883563734,135.35801453539366
6.665142784,0.9997012917127274,135.2188839128737
6.667428352,0.9997072746767051,135.07985789827154
6.669714432,0.9997321286021312,134.94062257204703
6.672,0.9997747580979948,134.80092151628781
6.674285568,0.9998322941807011,134.66055271555604
6.676571648,0.9999010236466122,134.5192759817727
6.678857216,0.9999767416919995,134.37699853323304
6.681142784,1.0000546754242008,134.23360547160104
6.683428352,1.0001297241491351,134.08917446816398
6.685714432,1.0001974293225284,133.9437108375115
6.688,1.0002530588907288,133.79738834184235
6.690285568,1.0002935417259993,133.6503656303772
6.692571648,1.0003160017005777,133.50295672468062
6.694857216,1.0003190348838606,133.35536767817894
6.697142784,1.0003025791766271,133.20790275099327
6.699428352,1.0002675279418214,133.06086813851897
6.701714432,1.0002161373170002,132.91446246849682
6.704,1.0001515813714266,132.7689096777072
6.706285568,1.0000780593035636,132.62442131002038
6.708571648,1.0000000754439824,132.48104073248308
6.710857216,0.9999224444824664,132.33883900956076
6.713142784,0.9998505308707766,132.19772715969754
6.715428352,0.9997884936348973,132.05766399518706
6.717714432,0.9997404912341514,131.91839532071424
6.72,0.9997093833642254,131.7797471127002
6.722285568,0.9996972380491884,131.6414424857278
6.724571648,0.9997048742843458,131.5031938631362
6.726857216,0.9997318054546537,131.36475518224546
6.729142784,0.9997763975936226,131.22581272156486
6.731428352,0.9998357897394081,131.08613407693076
6.733714432,0.9999062584351783,130.94556641843627
6.736,0.9999833039356546,130.80392246761159
6.738285568,1.000062010939154,130.66119214151604
6.740571648,1.0001375768647187,130.51737513807723
6.742857216,1.0002051416029984,130.37256980371998
6.745142784,1.000260406166889,130.22685252187404
6.747428352,1.000299678758761,130.08050364736917
6.749714432,1.0003206811993226,129.9337577659419
6.752,1.000322046823934,129.7868602866292
6.754285568,1.0003035903877109,129.64010842694356
6.756571648,1.00026653142251,129.49378796483774
6.758857216,1.000213286866609,129.3481488850308
6.761142784,1.0001468961134832,129.2034247456688
6.763428352,1.000071833032247,129.05973843186922
6.765714432,0.999992748181895,128.91724588112575
6.768,0.9999145925332087,128.77586734036427
6.770285568,0.9998423403205714,128.63563043576622
6.772571648,0.9997807387558767,128.4963793874334
6.774857216,0.9997334721521097,128.35797561833405
6.777142784,0.9997036680067636,128.22017397223766
6.779428352,0.9996931279000392,128.08267521028594
6.781714432,0.9997026805171756,127.94522247081836
6.784,0.9997316879790096,127.80753139093052
6.786285568,0.9997783067343329,127.66930806531181
6.788571648,0.9998395796967797,127.53033904931546
6.790857216,0.9999117179713185,127.39041731967185
6.793142784,0.9999900548951975,127.24946805452954
6.795428352,1.0000697789023443,127.10735650519135
6.797714432,1.0001455724384796,126.96414331140056
6.8,1.0002131328297128,126.81995296379839
6.802285568,1.0002676847794745,126.67488404982299
6.804571648,1.000305887142557,126.52917888316063
6.806857216,1.000325441733467,126.38307002677487
6.809142784,1.0003250112212312,126.23684386553818
6.811428352,1.0003045389704879,126.0907979225316
6.813714432,1.0002654129650794,125.94524339118959
6.816,1.0002100510940677,125.80038015236474
6.818285568,1.0001419452499707,125.65643964750343
6.820571648,1.000065302456889,125.51358682684781
6.822857216,0.9999851870613676,125.37187777745844
6.825142784,0.9999063995106375,125.23135678126941
6.827428352,0.9998341068702464,125.09197653876363
6.829714432,0.9997728907176516,124.95360809485231
6.832,0.9997263920220656,124.81606352454295
6.834285568,0.9996980360436319,124.67904621453923
6.836571648,0.9996892274045852,124.54237210215008
6.838857216,0.9997007508475809,124.4056764005048
6.841142784,0.9997318043046711,124.26871700432558
6.843428352,0.9997805314488898,124.13121969390374
6.845714432,0.9998437539829984,123.99294573784987
6.848,0.9999174934200751,123.85368709985008
6.850285568,0.9999973127824128,123.71335108973402
6.852571648,1.0000778320928918,123.57188318143956
6.854857216,1.000154058358426,123.42927703881384
6.857142784,1.0002213300297587,123.28567033726775
6.859428352,1.000275188420503,123.14123026890722
6.861714432,1.0003122800306115,122.9961524010579
6.864,1.0003301867338834,122.85071626782232
6.866285568,1.0003278447544446,122.70514825013447
6.868571648,1.0003052872837328,122.55982688790327
6.870857216,1.000264045827799,122.41497270523799
6.873142784,1.0002066758353796,122.27083333984608
6.875428352,1.000136827586541,122.12769771313009
6.877714432,1.0000586329484662,121.9856608321049
6.88,0.9999773969519979,121.84479394365526
6.882285568,0.9998980567172143,121.70513181025154
6.884571648,0.9998255458887415,121.5666077277767
6.886857216,0.9997648671456213,121.42905165192505
6.889142784,0.9997194808612256,121.29231901043526
6.891428352,0.9996926105100481,121.15615638159397
6.893714432,0.9996855072363873,121.02022602782965
6.896,0.9996990356296742,120.88434139725958
6.898285568,0.9997321635350136,120.74810392390623
6.900571648,0.9997830878139862,120.61130173154254
6.902857216,0.9998482190961037,120.47367253069281
6.905142784,0.9999236941672851,120.33506971284898
6.907428352,1.000004671746321,120.19535438034414
6.909714432,1.0000861072421132,120.05447146404332
6.912,1.0001625883217302,119.9124759779487
6.914285568,1.0002294636491265,119.7694693113886
6.916571648,1.000282616309514,119.6256401276667
6.918857216,1.000318481048355,119.48117134350416
6.921142784,1.0003346400491142,119.33632907478837
6.923428352,1.0003304138540243,119.19144202543224
6.925714432,1.0003057705572154,119.04681990990422
6.928,1.0002623285232284,118.90269512915131
6.930285568,1.000202909195299,118.7593671448701
6.932571648,1.0001310469381224,118.6169751747047
6.934857216,1.0000514677765435,118.475710219666
6.937142784,0.9999691147977843,118.33568467412314
