freq,mag,phase
6.0,0.9999090836414496,-19.104703253970687
6.015238144,0.9999220489811346,-19.618616778927766
6.030476288,0.9999363669892496,-20.132765528716
6.045714432,0.9999531324970752,-20.647133065460846
6.060952576,0.9999714822205228,-21.16178234575621
6.07619072,0.9999909334194025,-21.676698654170124
6.091428352,1.000010378982558,-22.19195458520869
6.106666496,1.0000292174593166,-22.707467742434496
6.12190464,1.0000463947362526,-23.22324304337864
6.137142784,1.0000613431273861,-23.73929215962927
6.152380928,1.0000733192072344,-24.255555831455254
6.167619072,1.0000818470066106,-24.772015251313423
6.182857216,1.0000864800424674,-25.288594733992607
6.19809536,1.000087072213647,-25.805293218781067
6.213333504,1.0000835571964897,-26.321989393453798
6.228571648,1.0000761046560618,-26.838734651810565
6.24380928,1.0000651185267773,-27.355402701878358
6.259047424,1.0000508409228683,-27.871982656066482
6.274285568,1.0000340556763956,-28.38845749491693
6.289523712,1.000015586480705,-28.904722807094704
6.304761856,0.9999960125516847,-29.420905365341415
6.32,0.9999762720952551,-29.936851215913002
6.335238144,0.9999573222892144,-30.4526320647224
6.350476288,0.9999398313778932,-30.968253097849665
6.365714432,0.9999246036794369,-31.483757219874878
6.380952576,0.9999122086915442,-31.999136361696074
6.39619072,0.9999033804809511,-32.514492289157516
6.411428352,0.9998985766205802,-33.029782864128705
6.426666496,0.9998976055749088,-33.54510321777361
6.44190464,0.9999008859718456,-34.06048610687591
6.457142784,0.9999082109412999,-34.575976321692934
6.472380928,0.9999191797427732,-35.09169047439514
6.487619072,0.9999333747643364,-35.60762772712405
6.502857216,0.9999502977010464,-36.12375332048334
6.51809536,0.9999689491594373,-36.64016877866495
6.533333504,0.9999887611932093,-37.1568758841094
6.548571648,1.0000086813051514,-37.67386446520465
6.56380928,1.0000280808289541,-38.191202620584086
6.579047424,1.0000459181175243,-38.70877484034455
6.594285568,1.0000615847378507,-39.226633559869896
6.609523712,1.0000742183911728,-39.74469047586985
6.624761856,1.0000834825161566,-40.262978341163965
6.64,1.0000886507614377,-40.781383740019834
6.655238144,1.0000898066970425,-41.299904672129905
6.670476288,1.0000867831578757,-41.81848264543129
6.685714432,1.0000795798516884,-42.337057739848106
6.700952576,1.0000687800489714,-42.85557384896434
6.71619072,1.0000545737140223,-43.37399725786226
6.731428352,1.000037737611652,-43.892340409107604
6.746666496,1.0000189513446238,-44.410447406303085
6.76190464,0.9999990345779726,-44.928450720501374
6.777142784,0.9999788512909444,-45.44624917842751
6.792380928,0.9999591897089142,-45.96386779242021
6.807619072,0.9999409852997415,-46.48135621271822
6.822857216,0.9999250376018044,-46.99863672877015
6.83809536,0.9999119901868536,-47.51582840416851
6.853333504,0.9999023870868562,-48.03295747271283
6.868571648,0.9998967701899307,-48.55007566540015
6.88380928,0.9998954510878054,-49.06716197375968
6.899047424,0.9998983373476416,-49.584341891339804
6.914285568,0.9999052386931359,-50.10163041605275
6.929523712,0.9999159849264595,-50.61910114086401
6.944761856,0.9999302196456474,-51.136751730685376
6.96,0.9999470647132797,-51.654640049043806
6.975238144,0.9999661860962876,-52.17282703105315
6.990476288,0.9999862648644673,-52.691321369338986
7.005714432,1.000006874762965,-53.210066270089975
7.020952576,1.0000268448029777,-53.72920518269059
7.03619072,1.0000453882576041,-54.2485387772554
7.051428352,1.0000617500633917,-54.76822326886972
7.066666496,1.0000751855713732,-55.28809341901071
7.08190464,1.0000850542468078,-55.80819234472406
7.097142784,1.0000911307004798,-56.32840736890321
7.112380928,1.0000927367074455,-56.848771543384764
7.127619072,1.0000902010137247,-57.36917341321501
7.142857216,1.000083378538135,-57.88957546581398
7.15809536,1.0000727632995854,-58.40995617140424
7.173333504,1.00005864466335,-58.930230883888605
7.188571648,1.000041662766214,-59.45034815690851
7.20380928,1.0000225778752427,-59.97035518078273
7.219047424,1.000002134578561,-60.490190325744834
7.234285568,0.999981453223337,-61.00979597950685
7.249523712,0.9999611528369661,-61.52921058442477
7.264761856,0.9999422319202287,-62.04849765900337
7.28,0.9999254607239025,-62.56759917488094
7.295238144,0.9999117400774443,-63.086579235207694
7.310476288,0.9999014041733102,-63.60546953393189
7.325714432,0.9998950749082962,-64.12433137569573
7.340952576,0.99989311011577,-64.64321286397362
7.35619072,0.9998953657649357,-65.16209654382732
7.371428352,0.9999019285082382,-65.68114968380456
7.386666496,0.9999125358995017,-66.20036932116199
7.40190464,0.9999267354277487,-66.71974301913626
7.417142784,0.9999437062202817,-67.23937859194376
7.432380928,0.9999630104270544,-67.75931377241288
7.447619072,0.9999835743185049,-68.27952459794464
7.462857216,1.0000047441793938,-68.8000377519471
7.47809536,1.000025469024881,-69.32088536384158
7.493333504,1.000044791760582,-69.84203991995815
7.508571648,1.0000619693334323,-70.36341750687963
7.52380928,1.0000762133137693,-70.88508984857175
7.539047424,1.0000868284887396,-71.40696035538119
7.554285568,1.0000935174532957,-71.92898411480412
7.569523712,1.0000959247641408,-72.45110941569541
7.584761856,1.000093908550662,-72.97333093545713
7.6,1.0000875474032995,-73.49552657128076
7.615238144,1.0000770364379048,-74.01769468729805
7.630476288,1.000062979248966,-74.53978495025271
7.645714432,1.0000458769960847,-75.06170594811329
7.660952576,1.000026516284733,-75.5835061377644
7.67619072,1.0000056068953307,-76.10511299089053
7.691428352,0.9999843009684264,-76.62649519228809
7.706666496,0.9999633039677626,-77.1477702146778
7.72190464,0.9999435655138301,-77.66876774064184
7.737142784,0.9999259582951452,-78.18962207377147
7.752380928,0.9999113424785242,-78.71033477460972
7.767619072,0.9999002055302201,-79.23096151035453
7.782857216,0.9998931841055927,-79.75151905052316
7.79809536,0.999890384004357,-80.27208077274048
7.813333504,0.9998922048015637,-80.79271607929861
7.828571648,0.9998984427078276,-81.31341794284606
7.84380928,0.9999086982182984,-81.834302480123
7.859047424,0.9999228534796283,-82.35537026133292
7.874285568,0.9999400312629052,-82.87669294066646
7.889523712,0.9999596335111528,-83.39828549411814
7.904761856,0.9999807117127508,-83.92016167825933
7.92,1.0000023751471816,-84.44237584262012
7.935238144,1.0000237568511419,-84.96490974385611
7.950476288,1.0000439971438466,-85.4877288358519
7.965714432,1.0000620404354408,-86.01083967751144
7.980952576,1.0000771136177844,-86.53420706666955
7.99619072,1.0000886778233322,-87.05776887641623
8.011428352,1.000096213659573,-87.58153470715187
8.026666496,1.000099333123122,-88.10538684795638
8.04190464,1.0000978082483847,-88.6293379232799
8.057142784,1.0000919213137542,-89.15326758377202
8.072380928,1.0000816750726371,-89.67720256912527
8.087619072,1.000067665760631,-90.20099890530403
8.102857216,1.0000504269905877,-90.72468596711005
8.11809536,1.0000307035952047,-91.24819455495515
8.133333504,1.0000093546010023,-91.77154237550384
8.148571648,0.9999873708656517,-92.29467365856964
8.16380928,0.9999656230619951,-92.81758012419408
8.179047424,0.9999450201011924,-93.34030153741608
8.194285568,0.9999265603942254,-93.86283461960957
8.209523712,0.9999109736365375,-94.38520289286947
8.224761856,0.9998989447733689,-94.90747223542427
8.24,0.9998910344538675,-95.42968236793489
8.255238144,0.9998874875524816,-95.95185190494372
8.270476288,0.9998887507912232,-96.47409733952735
8.285714432,0.9998945402131154,-96.99638497218173
8.300952576,0.9999046476832264,-97.51888251040772
8.31619072,0.9999186165168441,-98.04151818086059
8.331428352,0.9999359372471779,-98.56444969421752
8.346666496,0.9999558348536268,-99.08761997949941
8.36190464,0.99997742829566,-99.61111553027801
8.377142784,0.9999997758785406,-100.13489235439468
8.392380928,1.0000219991405908,-100.65899357343443
8.407619072,1.000043116565595,-101.183428277477
8.422857216,1.0000620840284704,-101.70815708132184
8.43809536,1.0000782074681271,-102.23313124356612
8.453333504,1.00009072305209,-102.75832681145914
8.468571648,1.0000991162870125,-103.28371350425714
8.48380928,1.0001029516155933,-103.80922998036213
8.499047424,1.0001020805986967,-104.33480838196735
8.514285568,1.000096616244697,-104.86040915527704
8.529523712,1.0000867401227644,-105.38596259297849
8.544761856,1.000072714544254,-105.91142572733958
8.56,1.0000553174249374,-106.4367536990661
8.575238144,1.0000353224518093,-106.9619297344618
8.590476288,1.0000135055173578,-107.48685978626581
8.605714432,0.9999907903401708,-108.01159670138497
8.620952576,0.9999682092651502,-108.53613023519706
8.63619072,0.9999466288457384,-109.06044365868827
8.651428864,0.9999271937788733,-109.58455579700576
8.666667008,0.999910555863382,-110.10850433206217
8.681905152,0.9998974859903639,-110.63232147526175
8.697143296,0.999888714304704,-111.15603897549863
8.71238144,0.9998845190574768,-111.67973989035576
8.72761856,0.9998850531754243,-112.20344613542836
8.742856704,0.9998903079098165,-112.72727967930219
8.758094848,0.9999000677891721,-113.2512299836899
8.773332992,0.9999139811225378,-113.77535549684967
8.788571136,0.999931427495157,-114.2997269984288
8.80380928,0.9999517265113314,-114.82437979533135
8.819047424,0.9999738169584618,-115.34931053752844
8.834285568,0.9999970301538734,-115.87458115094695
8.849523712,1.0000200420976872,-116.40017556749481
8.864761856,1.0000420716486798,-116.92607590489911
8.88,1.0000621180521885,-117.45231057709249
8.895238144,1.0000792161999348,-117.97878191185325
8.910476288,1.0000928217322242,-118.50550354091435
8.925714432,1.0001021479558794,-119.03241607702462
8.940952576,1.000106783863517,-119.55944232986461
8.95619072,1.0001067459398318,-120.08656099742169
8.971428864,1.0001017187720693,-120.61367399125834
8.986667008,1.0000921360915105,-121.14075526166498
9.001905152,1.0000782486681081,-121.66776332143431
9.017143296,1.0000607549723917,-122.19461044872618
9.03238144,1.0000403267112328,-122.72129934875319
9.04761856,1.000017884116889,-123.24777262027176
9.062856704,0.9999944350071671,-123.77400683275766
9.078094848,0.9999708989967462,-124.29998299974154
9.093332992,0.9999483566514162,-124.82577272444534
9.108571136,0.999927850665059,-125.35132687690663
9.12380928,0.9999101315879027,-125.87668466140329
9.139047424,0.9998959969742058,-126.40193756721975
9.154285568,0.9998862234235315,-126.92705030168312
9.169523712,0.9998810159862342,-127.4521474353757
9.184761856,0.9998808021198748,-127.97722509729367
9.2,0.9998855408675887,-128.5023824588861
9.215238144,0.9998950313190231,-129.02767616038543
9.230476288,0.9999088066150363,-129.55316409483126
9.245714432,0.9999264663573201,-130.0788544593025
9.260952576,0.9999470999545754,-130.6048219614714
9.27619072,0.99996982396531,-131.1310851606145
9.291428864,0.9999937222120907,-131.65770318855132
9.306667008,1.0000176691721105,-132.18462535333137
9.321905152,1.0000408308072484,-132.71187437798605
9.337143296,1.0000619725210866,-133.23945002820582
9.35238144,1.0000803009370423,-133.76728295302766
9.36761856,1.0000950003458653,-134.29536123731802
9.382856704,1.0001054096395494,-134.8236362362294
9.398094848,1.0001110379973444,-135.3520583653969
9.413332992,1.0001116853486545,-135.8805595924569
9.428571136,1.0001072729557634,-136.40908665414372
9.44380928,1.0000979165084507,-136.93756189141484
9.459047424,1.0000841622341694,-137.46594247572895
9.474285568,1.000066518930958,-137.9941844086563
9.489523712,1.000045794054927,-138.52224139017596
9.504761856,1.0000227321239539,-139.05004608094708
9.52,0.9999984911039876,-139.57765089747798
9.535238144,0.9999739211580468,-140.10500070805398
9.550476288,0.9999503478298789,-140.63209380189363
9.565714432,0.9999285568531652,-141.15893611949636
9.580952576,0.9999096999446626,-141.68558769997554
9.59619072,0.9998943956684408,-142.2120809157333
9.611428864,0.9998834446582003,-142.73844544162182
9.626667008,0.9998773523752835,-143.2647386043086
9.641905152,0.9998763168078862,-143.79104893117972
9.657143296,0.9998804317122221,-144.31739498106737
9.67238144,0.9998895901654089,-144.84385357040685
9.68761856,0.9999032512307532,-145.3704994017283
9.702856704,0.9999210383008379,-145.89736767680424
9.718094848,0.9999420472450569,-146.42449833157534
9.733332992,0.9999655296111283,-146.95194648995204
9.748571136,0.9999902149220119,-147.4797042552286
9.76380928,1.000015239214088,-148.00780567361434
9.779047424,1.0000394354431013,-148.53623156135396
9.794285568,1.0000619447739785,-149.06498061178726
9.809523712,1.0000814944674137,-149.5940121596552
9.824761856,1.0000973606201993,-150.12331942079803
9.84,1.0001089132585386,-150.65280281275588
9.855238144,1.0001155913267152,-151.1824486429918
9.870476288,1.000117132203346,-151.71217478413126
9.885714432,1.000113382649707,-152.24190303761634
9.900952576,1.0001044089734625,-152.7716214502725
9.91619072,1.000090822433516,-153.3012462399174
9.931428864,1.000073023711796,-153.83069392602684
9.946667008,1.00005180130845,-154.35996831486116
9.961905152,1.0000280267552009,-154.8890041038452
9.977143296,1.0000029057970046,-155.41777608877385
9.99238144,0.9999773218255444,-155.94628619088306
10.00761856,0.9999524938053338,-156.47451493567564
10.022856704,0.9999294474706389,-157.00248973391538
10.038094848,0.9999091831708778,-157.5302496192125
10.053332992,0.999892565970159,-158.05780758078106
10.068571136,0.9998804263430265,-158.58523621556714
10.08380928,0.9998732329430258,-159.1125901394298
10.099047424,0.9998712944027787,-159.63989336713368
10.114285568,0.9998747406954374,-160.1672597156072
10.129523712,0.9998834656305072,-160.69470790237924
10.144761856,0.9998970145602709,-161.22232752371502
10.16,0.9999149655518941,-161.75018000218725
10.175238144,0.9999364407716153,-162.2782810915151
10.190476288,0.9999605665240344,-162.80669496970486
10.205714432,0.9999862194030694,-163.33544722397514
10.220952576,1.0000123388100248,-163.86451884285526
10.23619072,1.0000378749537475,-164.39393803552545
10.251428864,1.0000616723285327,-164.92369469053605
10.266667008,1.0000825981879413,-165.45373249287493
10.281905152,1.0000999240199937,-165.9840499009926
10.297143296,1.0001128014057916,-166.5145709456323
10.31238144,1.0001205454519015,-167.045257843429
10.32761856,1.0001229624478123,-167.57601720917884
10.342856704,1.000119914146536,-168.10680481327677
10.358094848,1.0001114426903281,-168.6375836517556
10.373332992,1.0000979728231298,-169.1682282267402
10.388571136,1.0000800459700918,-169.69873753374125
10.40380928,1.0000582928887665,-170.22903583999454
10.419047424,1.0000338442716614,-170.75908322475152
10.434285568,1.0000077278567296,-171.28886258330036
10.449523712,0.9999809684615224,-171.8183477459169
10.464761856,0.9999548293518736,-172.34752605187057
10.48,0.9999302806432769,-172.87645403571904
10.495238144,0.9999084758228441,-173.4051096847392
10.510476288,0.9998904929109095,-173.93356254824258
10.525714432,0.9998769251811731,-174.46183524167375
10.540952576,0.9998686109781123,-174.9900295003612
10.55619072,0.9998657189624848,-175.5181669655143
10.571428864,0.9998684172535692,-176.0463266200495
10.586667008,0.9998766958892324,-176.57457323854487
10.601905152,0.9998900932043744,-177.10298473441253
10.617143296,0.9999082342218,-177.63158350673172
10.63238144,0.9999301148611369,-178.16046896437985
10.64761856,0.9999549517618002,-178.68963755781166
10.662856704,0.99998169858078,-179.21915971328178
10.678094848,1.0000090582111323,-179.74901333644246
10.693332992,1.000036074373592,179.72078098907107
10.708571136,1.0000613131218303,179.1902305529155
10.72380928,1.0000838533945633,178.65936855378848
10.739047424,1.0001026741091634,178.1282452504438
10.754285568,1.000116912652276,177.59688058422023
10.769523712,1.0001260294221068,177.06537386779235
10.784761856,1.0001294247121657,176.5337535576592
10.8,1.0001271211328207,176.0021011186144
10.815238144,1.000119158178833,175.47048335550232
10.830476288,1.0001058215277265,174.93896671441468
10.845714432,1.0000876888367491,174.40762640883426
10.860952576,1.000065482364747,173.87649423644035
10.87619072,1.0000402184448567,173.34565048143898
10.891428864,1.0000130433966856,172.81506333076555
10.906667008,0.9999848298876008,172.2847986999267
10.921905152,0.9999572591576813,171.7548703655865
10.937143296,0.9999311759028847,171.22521946570689
10.95238144,0.9999077325546774,170.69584015194096
10.96761856,0.9998881449880629,170.16672721246462
10.982856704,0.9998731378344904,169.63776538547802
10.998094848,0.9998633642570113,169.1089551875774
11.013332992,0.9998594301325439,168.5802414775024
11.028571136,0.9998612828712996,168.05149316407628
11.04380928,0.9998690840330442,167.5226708893141
11.059047424,0.9998823551413599,166.99370233603508
11.074285568,0.9999006017374018,166.46455725652189
11.089523712,0.9999230415701482,165.93513304010773
11.104761856,0.9999488280928297,165.40540729129225
11.12,0.9999766142650296,164.87534601227037
11.135238144,1.0000053114373135,164.34491341792446
11.150476288,1.0000339331709842,163.81414021853
11.165714432,1.0000609045547517,163.2830077080578
11.180952576,1.0000851395785675,162.75155410024624
11.19619072,1.0001055694211622,162.21982855292364
11.211428864,1.0001214415460664,161.68783775618786
11.226667008,1.000131862307426,161.15570320634728
11.241905152,1.0001365152883417,160.62342560873967
11.257143296,1.0001351428028191,160.0911443461697
11.27238144,1.0001276577518035,159.55887821424173
11.28761856,1.0001144011071428,159.02672153446545
11.302856704,1.0000961713927552,158.49474826144353
11.318094848,1.000073390298526,157.96299724059998
11.333332992,1.0000472398760856,157.43151430592522
11.348571136,1.000018815787908,156.9003541983557
11.36380928,0.9999892611625004,156.36952797239894
11.379047424,0.9999599340442609,155.83903649044842
11.394285568,0.9999321172084088,155.3088837910514
11.409523712,0.999906864823922,154.7790312593772
11.424761856,0.9998854899517924,154.24944554480746
11.44,0.999868746304489,153.7200780616741
11.455238144,0.9998575882529943,153.19086213910788
11.470476288,0.9998522816008891,152.66176170228573
11.485714432,0.9998532775040077,152.13265749712315
11.500952576,0.9998605000937814,151.60350202918102
11.51619072,0.9998735225477675,151.07421618003315
11.531428864,0.9998919809365034,150.54473219740981
11.546667008,0.9999150315484286,150.01500574044667
11.561905152,0.999941634989168,149.48495144306406
11.577143296,0.9999707646718863,148.954558062829
11.59238144,1.0000011033304517,148.42381973692946
11.60761856,1.000031396209273,147.89268962281625
11.622856704,1.0000602252730686,147.36120443583064
11.638094848,1.000086387311183,146.82938236724362
11.653332992,1.0001088248246721,146.2972492622154
11.668571136,1.0001264311743316,145.764873014731
11.68380928,1.0001384273980152,145.2323174802249
11.699047424,1.000144384593748,144.69963586728846
11.714285568,1.0001438559298776,144.16688988421336
11.729523712,1.0001370338638724,143.63420746085427
11.744761856,1.0001240894108359,143.1016089734531
11.76,1.0001055225533575,142.56921236738145
11.775238144,1.0000821251172316,142.03703668230733
11.790476288,1.0000550043982894,141.50516615527852
11.805714432,1.00002509774516,140.9736298489253
11.820952576,0.9999940235103237,140.44245267880143
11.83619072,0.9999627892908698,139.9116393916496
11.851428864,0.9999329217531742,139.38118261903745
11.866667008,0.9999056475119436,138.85107714167594
11.881905152,0.9998822251005816,138.3212720176754
11.897143296,0.9998636830994081,137.791715030039
11.91238144,0.9998508560876153,137.26233987454611
11.92761856,0.9998442386082128,136.73308521229657
11.942856704,0.9998441775906974,136.20385241367896
11.958094848,0.9998506738254522,135.67462122161234
11.973332992,0.9998635208408387,135.14524341804602
11.988571136,0.9998822548413133,134.61567168240398
12.00380928,0.999905977123327,134.08584997930168
12.019047424,0.9999336915264774,133.55572734307108
12.034285568,0.9999642444346282,133.02527920833643
12.049523712,0.9999962847620975,132.49441987552672
12.064761856,1.0000284884010995,131.9631766287951
12.08,1.000059473239001,131.4315663270247
