freq,mag,phase
6.0,1.000256074122217,116.24441724172223
6.002287616,1.0005776334825864,116.0782413110013
6.004575232,1.0008632124238954,115.90766866060228
6.006862848,1.0010941334105128,115.73338433241514
6.009150464,1.001256013283594,115.55627182462287
6.011438592,1.0013385125580876,115.37741802096568
6.013726208,1.0013361818708948,115.19801167859178
6.016013824,1.001249582717478,115.01924828521204
6.01830144,1.0010836868344175,114.84235820547835
6.020589056,1.0008493484057612,114.66838697003757
6.022876672,1.0005610242412004,114.49822817883012
6.025164288,1.0002371356741804,114.33254172976896
6.027451904,0.9998980207982173,114.17166120057563
6.029740032,0.9995651419824623,114.01573258824348
6.032027648,0.9992596301075297,113.86446805869176
6.034315264,0.9990008417334478,113.7173080159754
6.03660288,0.9988053409369284,113.5734996840979
6.038890496,0.9986853372458356,113.43202061541659
6.041178112,0.9986486748190647,113.29173164034779
6.043465728,0.9986976706182762,113.15135502334923
6.045753344,0.99882901100457,113.00971617574167
6.04804096,0.9990346274347084,112.86563354873448
6.050329088,0.9993015144788229,112.71814651072536
6.052616704,0.9996125523928356,112.5664615923526
6.05490432,0.9999481819601125,112.41012293284881
6.057191936,1.000287080289704,112.24889754754825
6.059479552,1.00060783637022,112.08289819852125
6.061767168,1.0008902235313077,111.91255589426926
6.064054784,1.0011162300839316,111.7385683357483
6.0663424,1.001271712403753,111.56181787788789
6.068630016,1.0013467699705267,111.38343834649105
6.070918144,1.001336691377192,111.20461183667545
6.07320576,1.001242008938589,111.02654714080981
6.075493376,1.001068807000113,110.85046588285459
6.077780992,1.0008279301073517,110.67737212421257
6.080068608,1.000534419280939,110.50822349405568
6.082356224,1.0002069869811705,110.34357511059036
6.08464384,0.9998662942895873,110.18380044464551
6.086931456,0.9995338662148016,110.02896282662375
6.089219584,0.9992308331654105,109.87873329025304
6.0915072,0.9989762399653683,109.73263052910006
6.093794816,0.9987865428108901,109.58978976806426
6.096082432,0.9986736633073673,109.4491553562604
6.098370048,0.9986446965755585,109.30960019204436
6.100657664,0.9987017111398766,109.1698674430462
6.10294528,0.998840873904385,109.02874313713251
6.105232896,0.9990535378969632,108.8850567342749
6.107520512,0.9993263335331785,108.73787499300359
6.10980864,0.999641687929842,108.58644435242677
6.112096256,0.9999797343168112,108.43027255447228
6.114383872,1.000319214931848,108.26920468412898
6.116671488,1.0006384412579548,108.10339384686412
6.118959104,1.0009172562144242,107.9332614455155
6.12124672,1.001138116818159,107.75950288413537
6.123534336,1.001287040125941,107.58316168855717
6.125821952,1.001354520345383,107.4052031677039
6.128109568,1.0013364731770555,107.2269327675092
6.130397696,1.0012337118519095,107.04958481906318
6.132685312,1.0010529968019517,106.874263812919
6.134972928,1.0008055942427423,106.70205966332503
6.137260544,1.0005069936303983,106.53386319870161
6.13954816,1.0001761573059487,106.37028366293124
6.141835776,0.9998341143881888,106.21157771019841
6.144123392,0.9995022015622177,106.05782421223351
6.146411008,0.9992017026165017,105.90865438601502
6.148699136,0.9989516905727543,105.76353357124549
6.150986752,0.9987680262893194,105.62161017629649
6.153274368,0.9986622751381611,105.48182152340983
6.155561984,0.9986412770028287,105.34298701199647
6.1578496,0.9987064365466086,105.20384701489934
6.160137216,0.998853610515142,105.06320367460154
6.162424832,0.9990734321848486,104.91989685812152
6.164712448,0.9993519084672735,104.77298462555953
6.167000064,0.9996715971198632,104.62174982627964
6.169288192,1.0000120597262796,104.46572480140117
6.171575808,1.000351738408489,104.30480328790777
6.173863424,1.0006692111332496,104.13912351351523
6.17615104,1.000944290469248,103.96913645592105
6.178438656,1.001159778165225,103.79567720795302
6.180726272,1.001301886663313,103.61958564954658
6.183013888,1.001361723536556,103.44211166536522
6.185301504,1.0013353836397088,103.26437665962513
6.18758912,1.0012246481431872,103.08767916265235
6.189877248,1.001036201593599,102.91314934646614
6.192164864,1.0007824611311258,102.74184293336674
6.19445248,1.000478788492229,102.5746191139714
6.196740096,1.0001446782021264,102.41202288913854
6.199027712,0.999801298556887,102.25437165149968
6.201315328,0.9994702886626108,102.10164502508812
6.203602944,0.999172688073952,101.95355091270089
6.20589056,0.9989273124084587,101.80937883800688
6.208178688,0.9987498141279365,101.66837157375177
6.210466304,0.9986514852436844,101.52938505339225
6.21275392,0.9986387202533585,101.391178578407
6.215041536,0.9987121481400435,101.25264803817223
6.217329152,0.9988672223742796,101.11243600254691
6.219616768,0.9990941653847116,100.96943447488853
6.221904384,0.9993785523686217,100.82275204051973
6.224192,0.9997022496314358,100.67167543825433
6.226479616,1.0000449222260275,100.51576698637083
6.228767744,1.000384670127396,100.35494631635501
6.23105536,1.000700220788495,100.1893834102276
6.233342976,1.0009714206659985,100.01956046615874
6.235630592,1.0011812568868605,99.84628874484702
6.237918208,1.0013163777536416,99.67055234794152
6.240205824,1.0013682141274576,99.49345963273595
6.24249344,1.0013336381074782,99.31626053591955
6.244781056,1.0012147039776234,99.14016789293576
6.247068672,1.0010186571105404,98.96642791415351
6.2493568,1.000758391569376,98.79600483757886
6.251644416,1.0004497063895252,98.62970205203129
6.253932032,1.0001124846330987,98.46815729061721
6.256219648,0.9997679794401614,98.31151623915105
6.258507264,0.999437950328371,98.15985513369552
6.26079488,0.9991434665888548,98.01270912566663
6.263082496,0.9989030851615386,97.86953755434494
6.265370112,0.998732020055113,97.72936561621792
6.26765824,0.9986414418700403,97.59111611584943
6.269945856,0.9986367308629556,97.45362538734067
6.272233472,0.9987186322226711,97.31555924372849
6.274521088,0.9988817609107773,97.17572599512988
6.276808704,0.9991157289865437,97.03305061517611
6.27909632,0.9994058490218052,96.8865718003846
6.281383936,0.9997336894402349,96.73559919153034
6.283671552,1.0000782493502487,96.57978283400098
6.285959168,1.0004179684999666,96.41901045035134
6.288247296,1.000731286447144,96.25350765932372
6.290534912,1.0009984096778355,96.08380235010999
6.292822528,1.0012023280601192,95.91073775932398
6.295110144,1.001330257647805,95.73525720516258
6.29739776,1.0013741138736685,95.5586021603741
6.299685376,1.0013309976424112,95.38190205643575
6.301972992,1.0012037736004942,95.20648872832267
6.304260608,1.0010001601116147,95.03346181827013
6.306548224,1.0007332979238144,94.86386939361469
6.308836352,1.000419882076168,94.69851982795774
6.311123968,1.0000797120588087,94.5379092670067
6.313411584,0.9997342731006543,94.38234875162783
6.3156992,0.9994054574473478,94.23167441068398
6.317986816,0.9991141940939037,94.08554329445462
6.320274432,0.998879004038577,93.94324197031742
6.322562048,0.9987146851284671,93.80392768209656
6.324849664,0.9986318109197131,93.66642610915802
6.327137792,0.9986356914502498,93.52948124627584
6.329425408,0.9987260159321639,93.39191425323689
6.331713024,0.9988972152756427,93.25246004796091
6.33400064,0.9991383104118055,93.11002103192065
6.336288256,0.9994340141402385,92.96365856928134
6.338575872,0.9997656552410807,92.81279179993494
6.340863488,1.0001122107736065,92.65701165274756
6.343151104,1.000451602700855,92.49625904169352
6.34543872,1.00076251900573,92.33081618822446
6.347726848,1.0010252177693906,92.16121328208747
6.350014464,1.0012230521083867,91.98830428448323
6.35230208,1.0013436523681676,91.81309887110291
6.354589696,1.0013791798835319,91.6367808206731
6.356877312,1.0013275302664568,91.4605907757493
6.359164928,1.0011918273487674,91.28580457235103
6.361452544,1.000980693056759,91.11350014601044
6.36374016,1.0007075347675807,90.9447805631486
6.366027776,1.0003892486915764,90.78031939482011
6.368315904,1.000046224221082,90.62069844854567
6.37060352,0.9997001269612779,90.46609763981219
6.372891136,0.9993728200809363,90.31641118550661
6.375178752,0.9990851198762909,90.1712368795479
6.377466368,0.9988551899112588,90.02984753662504
6.379753984,0.9986978856375458,89.89131336635084
6.3820416,0.998623003157557,89.75447661006784
6.384329216,0.9986354186171134,89.61812740915155
6.386617344,0.9987343828698605,89.48098438861139
6.38890496,0.9989137458332807,89.34184126745228
6.391192576,0.9991618763248763,89.19960524174235
6.393480192,0.9994632345974902,89.05336753183721
6.395767808,0.9997985328815376,88.90254234123842
6.398055424,1.0001467421778125,88.74674595206447
6.40034304,1.0004856269682543,88.58597814150112
6.402630656,1.000793903084068,88.4205282285944
6.404918272,1.0010520336480397,88.25101505295335
6.4072064,1.0012435825363932,88.07825957178433
6.409494016,1.0013564658576086,87.9032829639
6.411781632,1.00138370586011,87.72733682659704
6.414069248,1.0013232111941819,87.5516313920137
6.416356864,1.001179153657475,87.37742083734877
6.41864448,1.0009604636200058,87.20587464279282
6.420932096,1.0006807645533222,87.03792438344249
6.423219712,1.0003578703783773,86.87436963962108
6.425507328,1.0000121477654926,86.71571330598844
6.427795456,0.9996654345449223,86.56207699754044
6.430083072,0.9993399426178248,86.41336298055732
6.432370688,0.999055976427089,86.26909847803363
6.434658304,0.9988317378539113,86.1285645760287
6.43694592,0.9986814750701137,85.99078203331327
6.439233536,0.9986148427412463,85.85462635786018
6.441521152,0.9986359642264566,85.71878327203582
6.443808768,0.9987436746163323,85.58203615792284
6.446096896,0.9989310989791841,85.44316596051095
6.448384512,0.999186318214629,85.30107208202624
6.450672128,0.9994931048662644,85.15490783743806
6.452959744,0.9998321526209927,85.004064438235
6.45524736,1.000181843456305,84.84825978029006
6.457534976,1.000519975460607,84.68745901781148
6.459822592,1.0008254269650936,84.52198742832984
6.462110208,1.0010785372180304,84.3524972834079
6.464397824,1.001263544836328,84.17982506565856
6.466685952,1.0013687587129942,84.00509790771267
6.468973568,1.0013872805553727,83.82949930356904
6.471261184,1.0013181350052942,83.6542369358409
6.4735488,1.001165507462806,83.48062603219891
6.475836416,1.0009391030485124,83.30976142684626
6.478124032,1.0006532137094524,83.14262691386477
6.480411648,1.0003258179821168,82.97994993318046
6.482699264,0.9999775895438554,82.82219759633114
6.48498688,0.9996306653721359,82.66951641199542
6.487275008,0.9993068917782145,82.52174561241443
6.489562624,0.9990269964948656,82.37836233215106
6.49185024,0.9988086907604045,82.23867707234906
6.494137856,0.998665720285202,82.10158836045636
6.496425472,0.9986073967041811,81.96604681753062
6.498713088,0.9986374302024789,81.83067011047655
6.501000704,0.9987538875175541,81.69430335148704
6.50328832,0.9989494803600365,81.55563102048805
6.505576448,0.9992116520797634,81.4136603125589
6.507864064,0.9995238514171984,81.2675347472449
6.51015168,0.9998662479426892,81.11665940871647
6.512439296,1.000217266534474,80.96075683482609
6.514726912,1.000554598037081,80.79986636930924
6.517014528,1.0008568396775444,80.63435380414126
6.519302144,1.0011049031429289,80.46487484602115
6.52158976,1.0012831172385468,80.29230292756276
6.523877376,1.0013802937612875,80.11775700363822
6.526165504,1.001390179704125,79.94245529685276
6.52845312,1.0013120626126932,79.76765263923254
6.530740736,1.0011509472891567,79.5946068525137
6.533028352,1.0009169327893888,79.42442369043192
6.535315968,1.0006248092220815,79.25806996827322
6.537603584,1.0002930214358818,79.09626656923908
6.5398912,0.9999424311423061,78.93942999985634
6.542178816,0.9995954352522841,78.78767079519193
6.544466432,0.9992738391418603,78.64077994464348
6.54675456,0.9989980983234503,78.49828955532244
6.549042176,0.9987858397718381,78.35935481050917
6.551329792,0.9986505332038695,78.22296932972478
6.553617408,0.9986006939071201,78.08798732509807
6.555905024,0.9986396645809187,77.95308725727878
6.55819264,0.9987650314376189,77.81698205938558
6.560480256,0.9989686636442291,77.67850078132794
6.562767872,0.9992378303655404,77.53659184379813
6.565056,0.9995553264479227,77.3904715145081
6.567343616,0.9999010839240481,77.23949368617404
6.569631232,1.000253091937517,77.083461345618
6.571918848,1.000589257126197,76.92247152196731
6.574206464,1.0008881226628745,76.75686993393187
6.57649408,1.0011308838094835,76.58735311333294
6.578781696,1.0013021439985255,76.41488320851194
6.581069312,1.0013911267460658,76.24050338605521
6.583356928,1.0013920396643143,76.0654920074928
6.585645056,1.0013049621469554,75.89110826868885
6.587932672,1.0011353507478844,75.7186000548131
6.590220288,1.0008937428404638,75.54909950732716
6.592507904,1.0005954724241481,75.38349620238924
6.59479552,1.0002594422561044,75.22253616142521
6.597083136,0.9999066856832575,75.06657350605583
6.599370752,0.9995597102084252,74.91571907153431
6.601658368,0.999240587081318,74.76973487238445
6.603945984,0.998969403074434,74.62804903856339
6.606234112,0.9987634911389315,74.48986222626598
6.608521728,0.9986358915406875,74.35415167586798
6.610809344,0.9985947676860837,74.21965642026528
6.61309696,0.9986429359943424,74.08516494063052
6.615384576,0.9987771233285118,73.949311891713
6.617672192,0.9989889528003969,73.81100030674052
6.619959808,0.99926495307131,73.66910754762024
6.622247424,0.9995875787465387,73.52290173094454
6.624535552,0.9999364081866827,73.37181737231528
6.626823168,1.0002893450001875,73.21563219163404
6.629110784,1.0006241627575718,73.05446390148734
6.6313984,1.0009194112378728,72.88876977829315
6.633686016,1.0011566025213172,72.71920242403068
6.635973632,1.0013207017532288,72.54675010726645
6.638261248,1.0014012017060232,72.37252821102612
6.640548864,1.0013931922769292,72.1977862482019
6.64283648,1.0012969486167167,72.02382440755386
6.645124608,1.0011188086710547,71.85184371401421
6.647412224,1.0008697066790384,71.682972411257
6.64969984,1.0005654580990477,71.51814046959953
6.651987456,1.0002252262770521,71.35798066821344
6.654275072,0.9998705181982872,71.20287595701119
6.656562688,0.9995240113607501,71.05288320974341
6.658850304,0.9992074139951274,70.90775531443086
6.66113792,0.9989409238207169,70.76688327677614
6.663426048,0.9987415246606896,70.62940846738077
6.665713664,0.9986219682282487,70.49429981776328
6.66800128,0.9985897452216079,70.36027676788105
6.670288896,0.9986470232183019,70.22611672220664
6.672576512,0.9987901518143979,70.09052789764868
6.674864128,0.9990100955205082,69.95226065875521
6.677151744,0.9992928744048879,69.810372396003
6.67943936,0.9996205189768524,69.66405773753782
6.681726976,0.9999723924585767,69.51279056859063
6.684015104,1.0003260221239256,69.35641836380412
6.68630272,1.0006591060387109,69.19508403752924
6.688590336,1.0009505321498735,69.02921371486504
6.690877952,1.0011819040297874,68.85956281448678
6.693165568,1.0013385728337327,68.68712730180637
6.695453184,1.0014105592574796,68.51302998528342
6.6977408,1.0013934089391945,68.33856209131163
6.700028416,1.001288067601883,68.16495227178119
6.702316032,1.0011012102239614,67.99351032342894
6.70460416,1.0008445593356254,67.82526583519568
6.706891776,1.0005344522283748,67.66114337520841
6.709179392,1.0001902776315377,67.50179522934651
6.711467008,0.9998339060852319,67.34754122783843
6.713754624,0.9994879964705057,67.19840043593148
6.71604224,0.9991741980985792,67.05408924021175
6.718329856,0.9989127448650931,66.91395178951926
6.720617472,0.9987201722359684,66.7771601975935
6.7229056,0.9986087871799545,66.64260458923752
6.725193216,0.9985855780580943,66.50904091565003
6.727480832,0.9986521497449123,66.37518487711499
6.729768448,0.9988042899407147,66.23972437145133
6.732056064,0.9990323218756849,66.10152535896471
6.73434368,0.9993217661688902,65.95957333864021
6.736631296,0.9996543217169279,65.81309304746293
6.738918912,1.00000885445961,65.66162980380909
6.741206528,1.0003629944381067,65.50501811543954
6.743494656,1.0006942097967495,65.34345785484358
6.745782272,1.0009815399569844,65.17740844914975
6.748069888,1.0012068145612827,65.00764027995497
6.750357504,1.0013558634390098,64.83519018285295
6.75264512,1.001419175296436,64.6612037693037
6.754932736,1.0013927359816657,64.48696973415831
6.757220352,1.0012782054548093,64.31375012169107
6.759507968,1.0010827128236763,64.14278813566901
6.761795584,1.0008186152934662,63.975156826865245
6.764083712,1.0005027106344302,63.81174594430071
6.766371328,1.0001547425314965,63.6531603738381
6.768658944,0.9997968149251262,63.499713947469026
6.77094656,0.9994516573492159,63.35138537129691
6.773234176,0.9991410091667339,63.20785787450562
6.775521792,0.9988848489058411,63.068467740519615
6.777809408,0.9986992334887139,62.932309361561956
6.780097024,0.9985961726016355,62.798273308889115
6.782385152,0.9985821432175068,62.66510079813585
6.784672768,0.9986580993463925,62.531486313304754
6.786960384,0.9988192887540241,62.39617724981814
6.789248,0.9990554101332941,62.257960508764945
6.791535616,0.9993515021322203,62.11586994089561
6.793823232,0.9996887673876487,61.969213201873664
6.796110848,1.0000459721812318,61.817492545954465
6.798398464,1.0004002989028054,61.66063095484701
6.80068608,1.0007292980979945,61.49879584571084
6.802974208,1.0010122936299337,61.332521511306986
6.805261824,1.0012313526296643,61.16264749992618
6.80754944,1.0013725107046016,60.99014942219385
6.809837056,1.0014268965591637,60.81624630075311
6.812124672,1.0013911314507886,60.64221153176806
6.814412288,1.0012672716532902,60.46934815094209
6.816699904,1.0010632071216838,60.2988646610892
6.81898752,1.0007917786046823,60.1318213977706
6.821275136,1.0004701797486666,59.9690900314266
6.823563264,1.0001185582471315,59.81126283657173
6.82585088,0.9997593134233765,59.65860209119556
6.828138496,0.9994152530694015,59.51106638007897
6.830426112,0.9991080165017089,59.36828105138479
6.832713728,0.9988572379923341,59.22957646001456
6.835001344,0.9986788967800811,59.09402255800551
6.83728896,0.9985844011631746,58.96046464356397
6.839576576,0.9985796690240403,58.82763124915019
6.841864704,0.9986650945360253,58.69424158236515
6.84415232,0.9988352759847036,58.55898928296077
6.846439936,0.9990794377744057,58.420742633186215
6.848727552,0.9993819981207167,58.27848608329044
6.851015168,0.9997239121888527,58.13158640395634
6.853302784,1.0000834634928473,57.97957444223698
6.8555904,1.0004377122771433,57.82237265599265
6.857878016,1.0007644743488433,57.66025825641609
6.860165632,1.0010428531430036,57.49375537186969
6.86245376,1.0012553088058471,57.32370940619456
6.864741376,1.001388457182885,57.15115980399128
6.867028992,1.0014338750794423,56.977298738162744
6.869316608,1.0013885638948758,56.80347497955951
6.871604224,1.001255457244397,56.63093476614258
6.87389184,1.0010428416504986,56.46089917022509
6.876179456,1.000764106754384,56.29443240278822
6.878467072,1.0004369580335124,56.132364872629935
6.880754688,1.0000819857553789,55.97527118533863
6.883042816,0.9997215813493353,55.82335618680413
6.885330432,0.9993787849192337,55.676571432157594
6.887618048,0.9990751700105265,55.53451187535286
6.889905664,0.9988301927872875,55.396467593616926
6.89219328,0.9986593042028885,55.26145625278161
6.894480896,0.9985734259856026,55.12833892753703
6.896768512,0.9985781156283065,54.99581633493986
6.899056128,0.9986730456300303,54.862583812985044
6.901344256,0.9988522911380593,54.7273526570837
6.903631872,0.999104372393012,54.588991552829214
6.905919488,0.9994134364870212,54.44655576451712
6.908207104,0.9997597152773907,54.29937961449614
6.91049472,1.0001213202785533,54.147031152537224
6.912782336,1.0004753843038694,53.98947680265546
6.915069952,1.0007994826107893,53.827023728459224
6.917357568,1.0010730011931943,53.6602570144916
6.919645184,1.0012787588721137,53.49000595768332
6.921933312,1.0014036727967988,53.31735244846538
6.924220928,1.0014398612719875,53.14356167004036
6.926508544,1.0013850379842932,52.969889050160205
6.92879616,1.0012425406131924,52.79765181369284
6.931083776,1.00102134350498,52.62806453103875
6.933371392,1.0007354775641002,52.462161813606215
6.935659008,1.0004028808640792,52.3007191705141
