freq,mag,phase
6.0,1.0001272939292047,-93.64713559061849
6.002891264,1.0002747621477899,-93.8072243143013
6.005782528,1.000406201331715,-93.96929008232247
6.008673792,1.000512664749634,-94.13311971890433
6.011565056,1.0005879637677528,-94.29827010622085
6.01445632,1.0006269623955986,-94.46426250311482
6.017347072,1.0006276015703788,-94.63054086581577
6.020238336,1.0005896027779477,-94.79657839298105
6.0231296,1.0005153175476107,-94.9618394918764
6.026020864,1.000409468993851,-95.12584252391903
6.028912128,1.0002785985831086,-95.28813929320921
6.031803392,1.0001308864724054,-95.44841487923404
6.034694656,0.9999752638972744,-95.606576992634
6.03758592,0.9998219092864554,-95.76252954981948
6.040477184,0.9996799142185383,-95.9163390260845
6.043368448,0.9995581929393176,-96.06828484716026
6.046259712,0.9994645086601341,-96.21870035185543
6.049150464,0.9994048178632482,-96.36800081932489
6.052041728,0.9993824418870441,-96.51674197414911
6.054932992,0.9993991641928314,-96.66543839383024
6.057824256,0.9994537211234955,-96.81473780412995
6.06071552,0.9995428944763296,-96.96499146404656
6.063606784,0.9996610616615239,-97.11682430002924
6.066498048,0.99980072837865,-97.27050981301882
6.069389312,0.9999534721822243,-97.42634258754923
6.072280576,1.000109595090401,-97.5843834655877
6.07517184,1.000259263827956,-97.74468593123358
6.078063104,1.000393535543713,-97.9070254787713
6.080953856,1.0005037292531607,-98.07113565846294
6.08384512,1.0005830128308502,-98.2366498968511
6.086736384,1.000626589658125,-98.40306630151812
6.089627648,1.0006317808117413,-98.56981390042301
6.092518912,1.0005979420857103,-98.73640661848869
6.095410176,1.0005273771944678,-98.90223814216627
6.09830144,1.000424601808576,-99.0669105943997
6.101192704,1.0002957236420424,-99.2298886868921
6.104083968,1.0001489339245966,-99.3908887083909
6.106975232,0.9999931499452015,-99.54974268166568
6.109866496,0.9998383961547354,-99.70637376665763
6.112757248,0.9996940605568133,-99.86085139539358
6.115648512,0.9995692761275017,-100.01342586606245
6.118539776,0.9994716057106046,-100.16440477370921
6.12143104,0.9994074330668653,-100.31423546790967
6.124322304,0.9993806139018246,-100.46341634219463
6.127213568,0.9993927922780682,-100.61251795436007
6.130104832,0.9994434509372302,-100.76206675225684
6.132996096,0.9995291458046189,-100.91261055866366
6.13588736,0.9996446277301825,-101.0646915840926
6.138778624,0.999782807907958,-101.2185390621466
6.141669888,0.9999350434480366,-101.37455365763837
6.144561152,1.0000918902669134,-101.53275667560331
6.147451904,1.0002434517636778,-101.69319915848376
6.150343168,1.0003803850882316,-101.85578648359395
6.153234432,1.0004940660696706,-102.02018502854797
6.156125696,1.0005776790805716,-102.18599791047569
6.15901696,1.0006257685350644,-102.35276279502959
6.161908224,1.0006353609859497,-102.51999298464668
6.164799488,1.0006058757162668,-102.68709225368853
6.167690752,1.0005392930018482,-102.85347868191626
6.170582016,1.0004395172418976,-103.01872651673509
6.17347328,1.000312830910535,-103.18236606484757
6.176364544,1.0001671061389013,-103.34404838102499
6.179255296,1.0000114571033865,-103.50357036593228
6.18214656,0.9998554139374488,-103.66084384514662
6.185037824,0.9997088118320472,-103.81599159062638
6.187929088,0.9995808295631002,-103.96917087148329
6.190820352,0.9994793357054474,-104.12070350058076
6.193711616,0.9994107522822196,-104.27102401966707
6.19660288,0.9993792745733285,-104.4205974377229
6.199494144,0.9993870228899933,-104.57006165236749
6.202385408,0.9994333223030392,-104.71991523000229
6.205276672,0.9995155044174354,-104.87072585830447
6.208167936,0.9996284080878166,-105.0229291460623
6.211058688,0.9997648547407014,-105.17695009532984
6.213949952,0.9999165229909684,-105.33307760204904
6.216841216,1.0000738560380331,-105.491439974955
6.21973248,1.00022715808293,-105.65204831015821
6.222623744,1.0003667456081786,-105.81479577191749
6.225515008,1.000484111540797,-105.97937437747909
6.228406272,1.0005717628179784,-106.14548575276292
6.231297536,1.0006243534387045,-106.31264886176042
6.2341888,1.0006386904607154,-106.48023286218807
6.237080064,1.000613588565777,-106.64780423673598
6.239971328,1.0005509275510995,-106.81472591097314
6.24286208,1.0004543465221105,-106.9805386060202
6.245753344,1.000329945435881,-107.14477974429973
6.248644608,1.0001855184957467,-107.30710410340885
6.251535872,1.0000298741861047,-107.46726670052934
6.254427136,0.9998728138756964,-107.62520366745852
6.2573184,0.9997241159752516,-107.78096518566822
6.260209664,0.999592889893644,-107.93468520913477
6.263100928,0.9994875334752572,-108.08672537240528
6.265992192,0.9994145206478974,-108.2375431443186
6.268883456,0.9993785092870636,-108.38753502364327
6.27177472,0.9993816180336873,-108.53729293475436
6.274665472,0.9994237187005076,-108.68740277230702
6.277556736,0.9995022055357303,-108.83841790274147
6.280448,0.999612160354705,-108.99081595412028
6.283339264,0.9997468341028234,-109.14494724263183
6.286230528,0.9998976964423198,-109.30115233331864
6.289121792,1.0000555152566393,-109.45960042636028
6.292013056,1.0002103198071706,-109.62035179171616
6.29490432,1.0003526242879526,-109.78323496895284
6.297795584,1.0004734079254434,-109.9480329661366
6.300686848,1.0005651908828987,-110.11434570431285
6.303578112,1.000622426585838,-110.28173599468023
6.306468864,1.0006413431105363,-110.44973462936171
6.309360128,1.0006208136784478,-110.6177304272207
6.312251392,1.0005621404737866,-110.78515236565838
6.315142656,1.000468925456521,-110.95149410424219
6.31803392,1.000346944793336,-111.11630956192424
6.320925184,1.0002038148419243,-111.27926284036366
6.323816448,1.000048425943236,-111.44001178432141
6.326707712,0.9998904798636633,-111.59854816710967
6.329598976,0.9997396138533428,-111.75488469474563
6.33249024,0.9996055323267931,-111.90918310915691
6.335381504,0.9994963013638496,-112.06171744727766
6.338272256,0.9994189352579226,-112.21293617407788
6.34116352,0.9993782058708478,-112.36332764815354
6.344054784,0.9993767131799113,-112.5134036233782
6.346946048,0.9994143315721137,-112.66376596010133
6.349837312,0.9994890963538869,-112.81490040663935
6.352728576,0.9995960823959731,-112.96739744137504
6.35561984,0.9997287014031684,-113.12164653358998
6.358511104,0.9998788346830053,-113.27791310738506
6.361402368,1.0000369239377074,-113.43646725038438
6.364293632,1.0001931970482802,-113.59725074781845
6.367184896,1.0003379588128678,-113.76023953799786
6.370075648,1.0004622492674435,-113.92514908664728
6.372966912,1.0005581679515347,-114.09169328726023
6.375858176,1.0006198853292323,-114.25935531602025
6.37874944,1.000643557921329,-114.42764704701591
6.381640704,1.0006276563592778,-114.5959917648682
6.384531968,1.0005731285279384,-114.76386739282869
6.387423232,1.000483417801146,-114.93071559718418
6.390314496,1.0003639307304681,-115.09606850993715
6.39320576,1.0002223897367897,-115.25959477617401
6.396097024,1.0000673749826632,-115.42094937332936
6.398988288,0.9999083980115874,-115.58005872972258
6.40187904,0.9997556620978676,-115.73696578133617
6.404770304,0.999618515676437,-115.89177671813731
6.407661568,0.9995055909030941,-116.04480865720197
6.410552832,0.9994237399637989,-116.19640665296484
6.413444096,0.9993784423803403,-116.34711483949252
6.41633536,0.9993721747107756,-116.49746185926475
6.419226624,0.9994054204640674,-116.64801027630426
6.422117888,0.9994761952962835,-116.79931828034921
6.425009152,0.9995801117576478,-116.9519260820104
6.427900416,0.9997106440710689,-117.1062001312159
6.43079168,0.9998596852191728,-117.26250554374846
6.433682944,1.0000179789330668,-117.42106958443308
6.436573696,1.0001755924903153,-117.58189071457589
6.43946496,1.000322778935882,-117.74492019079086
6.442356224,1.000450470660361,-117.90996376099984
6.445247488,1.0005505461637,-118.07661983782586
6.448138752,1.0006167604688931,-118.24448490484869
6.451030016,1.000645185076485,-118.41306250154663
6.45392128,1.0006339774425175,-118.58177530140145
6.456812544,1.000583729418542,-118.75005853805834
6.459703808,1.0004975067858726,-118.91738968694209
6.462595072,1.0003807767437856,-119.08322831823067
6.465486336,1.000240866774254,-119.24725230677464
6.468377088,1.000086301406134,-119.40917190712565
6.471268352,0.9999267626829986,-119.56883456688007
6.474159616,0.9997721349259759,-119.72624881808106
6.47705088,0.9996321211943683,-119.88153535070072
6.479942144,0.9995154723652889,-120.03501900024051
6.482833408,0.999429249581898,-120.187002908484
6.485724672,0.9993791377404941,-120.33802443323401
6.488615936,0.9993681307083906,-120.48862874265393
6.4915072,0.9993968818651032,-120.63935089949386
6.494398464,0.9994636680894491,-120.79077429483488
6.497289728,0.9995643000917729,-120.94343616077745
6.50018048,0.9996926917371088,-121.09772557321962
6.503071744,0.9998404644284962,-121.25406140968074
6.505963008,0.9999988510660501,-121.41254777401653
6.508854272,1.0001577112667925,-121.57335945179373
6.511745536,1.0003072743529229,-121.73642915347516
6.5146368,1.000438228593032,-121.90150663721306
6.517528064,1.0005423007987295,-122.06826098074185
6.520419328,1.000613182609876,-122.2363020486783
6.523310592,1.000646408298427,-122.40515030168454
6.526201856,1.000639947807072,-122.57411936903213
6.52909312,1.0005939204918275,-122.7427726927675
6.531983872,1.0005114856428812,-122.91050460069147
6.534875136,1.0003977228475578,-123.07681802658024
6.5377664,1.0002594279957489,-123.24133972408345
6.540657664,1.0001055291200511,-123.4037962494313
6.543548928,0.9999454291994591,-123.56396573442655
6.546440192,0.9997891057496908,-123.72187569744538
6.549331456,0.9996462031063074,-123.8776221851772
6.55222272,0.9995258296084462,-124.03148598319534
6.555113984,0.9994354496961382,-124.18386657774101
6.558005248,0.9993805187569674,-124.33514161252883
6.560896512,0.999364683658907,-124.48597533813727
6.563787264,0.9993888346099055,-124.63684498537421
6.566678528,0.9994515009715615,-124.78836639053723
6.569569792,0.9995487707155087,-124.94104168620903
6.572461056,0.9996746727598396,-125.09532401644783
6.57535232,0.9998213301642053,-125.25157905505553
6.578243584,0.9999795177440799,-125.4100505641237
6.581134848,1.0001395065026502,-125.57079659165977
6.584026112,1.0002913099741857,-125.73381282913194
6.586917376,1.0004253877784486,-125.89889791760946
6.58980864,1.000533638355658,-126.06572389030255
6.592699904,1.0006090531332716,-126.23390320679633
6.595590656,1.0006470342854328,-126.4029017780158
6.59848192,1.0006452466280684,-126.57217741320227
6.601373184,1.0006037950566324,-126.74112308909208
6.604264448,1.0005251141601281,-126.90922230371226
6.607155712,1.0004142385483918,-127.07598061693074
6.610046976,1.000278039771246,-127.24096116083528
6.61293824,1.000124853524317,-127.40387753830593
6.615829504,0.9999642545365907,-127.56452260097514
6.618720768,0.9998062732383306,-127.72288107734711
6.621612032,0.9996607796186242,-127.87906394773216
6.624503296,0.9995367829965173,-128.03333296589844
6.627394048,0.9994420074476654,-128.1859962348342
6.630285312,0.9993823353854249,-128.33758310564988
6.633176576,0.9993616485911013,-128.4885669938145
6.63606784,0.9993811057880603,-128.63955675718265
6.638959104,0.9994396047173234,-128.79113841676
6.641850368,0.9995333883074274,-128.94378928707874
6.644741632,0.9996567119477354,-129.0980370158513
6.647632896,0.9998019397306115,-129.25419690094637
6.65052416,0.9999599390576724,-129.41256046728589
6.653415424,1.00012093482223,-129.57323656139533
6.656306688,1.0002748238541654,-129.73616625068868
6.65919744,1.00041218158977,-129.90123787328588
6.662088704,1.0005242448084866,-130.0680638317906
6.664979968,1.0006042742423868,-130.23633105213338
6.667871232,1.000647164836509,-130.40545600880816
6.670762496,1.0006502179946926,-130.57492832310305
6.67365376,1.0006132561942624,-130.74416854195653
6.676545024,1.0005385476778341,-130.91260535275165
6.679436288,1.0004307839990687,-131.07976510112593
6.682327552,1.0002965552815535,-131.24516109732215
6.685218816,1.0001443643968577,-131.40850972794385
6.68811008,0.999983386089775,-131.5695939779729
6.691000832,0.9998240387181807,-131.72838584890687
6.693892096,0.999675849195637,-131.88498810829876
6.69678336,0.9995482721297895,-132.0395578042923
6.699674624,0.9994491889547074,-132.1925466159958
6.702565888,0.9993849278086216,-132.34434416362163
6.705457152,0.999359188684398,-132.49550629127052
6.708348416,0.9993739738375442,-132.64657044598488
6.71123968,0.9994281204879505,-132.79816238468018
6.714130944,0.9995183555243631,-132.95076114143515
6.717022208,0.9996390038773422,-133.10492968842584
6.719913472,0.999782595171236,-133.26100836844194
6.722804736,0.9999402649817573,-133.4192283402577
6.725695488,1.0001021386556368,-133.57974247316247
6.728586752,1.0002580412314483,-133.74259595561477
6.731478016,1.0003985033731493,-133.90753726909213
6.73436928,1.0005145804471138,-134.0743896736371
6.737260544,1.000599099103029,-134.2426535376543
6.740151808,1.0006467564884283,-134.4118864418469
6.743043072,1.00065470408706,-134.58151587053865
6.745934336,1.0006224160943533,-134.75099619519182
6.7488256,1.0005517401244426,-134.91971714633817
6.751716864,1.0004471814245348,-135.08719218325888
6.754608128,1.000315212511183,-135.25296214685517
6.75749888,1.000164048172781,-135.41673851141496
6.760390144,1.0000029483374981,-135.57825521010213
6.763281408,0.999842093372959,-135.73742744824483
6.766172672,0.9996914191230858,-135.8943934592531
6.769063936,0.9995603531892948,-136.04931244396457
6.7719552,0.9994570352569857,-136.20252562012857
6.774846464,0.9993879275011842,-136.35453383319395
6.777737728,0.9993573879768107,-136.5058182917225
6.780628992,0.9993672179986265,-136.65695884580563
6.783520256,0.999416985125947,-136.80849258152844
6.78641152,0.9995034726768051,-136.96106870547595
6.789302272,0.9996213068645179,-137.11507206434703
6.792193536,0.9997632279703534,-137.27098189796092
6.7950848,0.9999203035881561,-137.4290585644582
6.797976064,1.0000828574031715,-137.58941030596517
6.800867328,1.0002407419489645,-137.75206100473395
6.803758592,1.0003840979060632,-137.91692684022607
6.806649856,1.0005039429900855,-138.08366459249498
6.80954112,1.0005931051666013,-138.25191452304577
6.812432384,1.0006456447539038,-138.42119687555734
6.815323648,1.0006585064934443,-138.59094583032652
6.818214912,1.000630831832303,-138.7606278669186
6.821105664,1.0005644153057427,-138.9295854696431
6.823996928,1.0004631458983277,-139.0973561628201
6.826888192,1.0003335318938078,-139.26348219610347
6.829779456,1.000183593476618,-139.42762458611782
6.83267072,1.0000225033641954,-139.58949350715164
6.835561984,0.9998603768282138,-139.74904245446157
6.838453248,0.9997073150459738,-139.9063249873307
6.841344512,0.9995728101928628,-140.06153214475037
6.844235776,0.9994653125305705,-140.21501990555896
6.84712704,0.9993914899537437,-140.36717119832727
6.850018304,0.9993559864165026,-140.5185273318083
6.852909056,0.9993609764500107,-140.66968294243006
6.85580032,0.9994061821794723,-140.82119536959175
6.858691584,0.9994888201668679,-140.97365462400109
6.861582848,0.9996037323418825,-141.12752400471635
6.864474112,0.9997438127947954,-141.28322409131192
6.867365376,0.9999002583139469,-141.44107186570426
6.87025664,1.0000634065223555,-141.60122549222345
6.873147904,1.0002230556833596,-141.7637145173697
6.876039168,1.0003693149525328,-141.92837615499724
6.878930432,1.0004930237346539,-142.09503204389878
6.881821696,1.0005864913298619,-142.26319284591753
6.884712448,1.0006439817148378,-142.43247400592958
6.887603712,1.0006618458721126,-142.6022936874374
6.890494976,1.000638970514399,-142.77208126765174
6.89338624,1.0005767441798261,-142.94127763798252
6.896277504,1.0004790131252888,-143.10929663539636
6.899168768,1.0003519069583735,-143.27574124375792
6.902060032,1.0002032009841033,-143.44018540578531
6.904951296,1.0000422351521145,-143.60238577449172
6.90784256,0.9998789910076505,-143.7622525982585
6.910733824,0.9997236665202993,-143.91985125286155
6.913625088,0.9995858838376679,-144.07533417627235
6.91651584,0.9994742335870349,-144.22901456042712
6.919407104,0.9993957108394662,-144.38129224440405
6.922298368,0.9993551261009194,-144.53273926764436
6.925189632,0.9993551705439547,-144.6838806014534
6.928080896,0.999395894080267,-144.83533800645796
6.93097216,0.9994745582362137,-144.98763727072833
6.933863424,0.999586439347248,-145.1413097342192
6.936754688,0.9997244737440305,-145.29676731363713
6.939645952,0.9998801426205158,-145.45436107534636
6.942537216,1.0000436485030966,-145.61426994656992
6.94542848,1.0002050181257105,-145.77648469446163
6.948319232,1.0003540190716276,-145.94098835359856
6.951210496,1.0004815155943838,-146.10743885364343
6.95410176,1.0005794299904198,-146.27552726590275
6.956993024,1.0006417970980048,-146.44475057250838
6.959884288,1.0006646158023655,-146.61462289089027
6.962775552,1.0006466036089674,-146.78450193199356
6.965666816,1.0005887285575314,-146.95385555647934
6.96855808,1.0004946103675165,-147.1220945617584
6.971449344,1.0003701220275105,-147.28877511084966
6.974340608,1.0002229148532447,-147.45349697316132
6.977231872,1.0000622430874258,-147.6160084142241
6.980122624,0.999897976312468,-147.77616395850296
6.983013888,0.9997404803366426,-147.93402771336397
6.985905152,0.9995994391358224,-148.0897409332671
6.988796416,0.9994836633415972,-148.24358770603698
6.99168768,0.9994004592754786,-148.39599250247738
6.994578944,0.9993549119669798,-148.54746714701358
6.997470208,0.9993500410230299,-148.69857324158093
7.000361472,0.9993860142380431,-148.84991991800837
7.003252736,0.9994606506611757,-149.00203923492182
7.006144,0.999569243100435,-149.15546986935507
7.009035264,0.9997051968472905,-149.31065740590822
7.011926528,0.9998598978547231,-149.46795999177252
7.01481728,1.0000238285027678,-149.6275931853763
7.017708544,1.0001866790535348,-149.78954888937764
7.020599808,1.0003383441885672,-149.95373774675485
7.023491072,1.0004695591008426,-150.11999909431583
7.026382336,1.00057184079669,-150.2879046993731
7.0292736,1.0006390856880072,-150.45708119410344
7.032164864,1.000666985006491,-150.62690681132798
7.035056128,1.0006538247828676,-150.79687566092258
7.037947392,1.0006003968888917,-150.9662909473289
7.040838656,1.0005099997568732,-151.13472400430925
7.04372992,1.0003881615876922,-151.30164311177083
7.046620672,1.0002426589808002,-151.46660707609695
7.049511936,1.000082408316657,-151.6293621705801
7.0524032,0.9999172742750936,-151.78981657840052
7.055294464,0.9997576650816739,-151.94787728679438
7.058185728,0.9996134926174159,-152.1037816692202
7.061076992,0.99949371654929,-152.257767559228
7.063968256,0.9994058038507663,-152.41026617951425
7.06685952,0.9993553625730486,-152.56174105360677
7.069750784,0.9993453915600924,-152.7127958247109
7.072642048,0.9993765980731186,-152.86398674533058
7.075533312,0.9994470709341409,-153.0158974497766
7.078424064,0.9995523440047327,-153.16910409364078
7.081315328,0.9996859751299799,-153.32400460563613
7.084206592,0.9998396149009591,-153.4809761123412
7.087097856,1.000003713351814,-153.6402175466383
7.08998912,1.0001679179322083,-153.80186988006815
7.092880384,1.0003222340532654,-153.96577824995097
7.095771648,1.0004569437211606,-154.13177458854838
7.098662912,1.0005636629092158,-154.29951179410762
7.101554176,1.0006356562292018,-154.46851433902373
7.10444544,1.0006686625620203,-154.6382720233612
7.107336704,1.0006603857223633,-154.80822618939553
7.110227456,1.0006115357455065,-154.97774328046881
7.11311872,1.0005249593674925,-155.14632266300754
7.116009984,1.0004060983166494,-155.31337844805248
7.118901248,1.000262333292815,-155.47856383042443
7.121792512,1.0001025406827109,-155.64155215575303
7.124683776,0.9999367175260908,-155.80222625018567
7.12757504,0.9997751798214304,-155.9605026353619
7.130466304,0.9996280145511616,-156.116547164216
7.133357568,0.9995042778355421,-156.27065871641634
7.136248832,0.999411720522658,-156.42319923288238
7.139140096,0.9993562211246263,-156.5746716448332
7.142030848,0.9993412172357387,-156.7256023437752
7.144922112,0.9993675984970048,-156.87662749330215
