freq,mag,phase
6.0,1.0000054947413155,151.59042164114965
6.041236992,1.0000009814321709,148.93345130559715
6.082473984,0.9999977111446696,146.2802961894004
6.123711488,0.9999944711969578,143.6309706404889
6.16494848,0.999991393121444,140.98546722683665
6.206185472,0.999988534522805,138.34370992191847
6.247422464,0.9999858070477318,135.70570105141127
6.288659968,0.9999833655997675,133.0713398382569
6.32989696,0.999981156578676,130.440630308057
6.371133952,0.9999791481343145,127.8135096295121
6.412370944,0.9999774187363075,125.18993205917761
6.453608448,0.9999760468921781,122.56982286131651
6.49484544,0.9999749584128168,119.9531407187586
6.536082432,0.9999740710287794,117.33982279732736
6.577319424,0.9999736675655863,114.72979434712053
6.618556928,0.9999733681299491,112.12299099475464
6.65979392,0.9999734666361978,109.51932010859991
6.701030912,0.9999738065185352,106.91874797223083
6.742267904,0.9999745730198748,104.32116519184535
6.783505408,0.9999753778641839,101.72649693309208
6.8247424,0.9999765169836901,99.13467177461091
6.865979392,0.9999779499623836,96.54560851078072
6.907216384,0.9999795871377846,93.95920127645503
6.948453376,0.9999814232481241,91.37535730637913
6.98969088,0.9999833867413753,88.79401120181208
7.030927872,0.9999854774317685,86.21504342231103
7.072164864,0.9999876784630228,83.63839323088581
7.113401856,0.9999899406616075,81.06392949571051
7.15463936,0.9999923766538563,78.4915734629361
7.195876352,0.9999946711502689,75.92123147027725
7.237113344,0.9999970731037243,73.35279010238125
7.278350336,0.9999993880294596,70.78614518635187
7.31958784,1.000001692074575,68.2212099496495
7.360824832,1.0000039135690904,65.65786407818383
7.402061824,1.0000059686259875,63.09602172678174
7.443298816,1.0000079375961706,60.53556660169709
7.48453632,1.0000096844941109,57.97638306335079
7.525773312,1.0000113137650357,55.41840197830875
7.567010304,1.0000127310073594,52.86147823097765
7.608247296,1.000013938241277,50.30549928313566
7.649484288,1.0000148050758095,47.750374469816535
7.690721792,1.0000156547074752,45.19600718095474
7.731958784,1.0000161164990726,42.642282096288895
7.773195776,1.0000164152387803,40.089046365334944
7.814432768,1.0000164271410568,37.53624131589744
7.855670272,1.0000162308443115,34.983759402910486
7.896907264,1.00001583463766,32.43146008287694
7.938144256,1.000015194717034,29.87924922683024
7.979381248,1.000014353714319,27.327018005459248
8.020618752,1.0000132939449502,24.77465339708067
8.061855744,1.0000121828467172,22.22205247533916
8.103092736,1.0000108511349473,19.66907849327803
8.144329728,1.0000093699361106,17.115661994761535
8.185567232,1.000007873814709,14.561685667985286
8.226804224,1.0000062209241705,12.007006235258263
8.268041216,1.000004538841712,9.45157717382178
8.309278208,1.0000028954769289,6.895239389105324
8.350515712,1.0000011656657872,4.337905397478588
8.391752704,0.9999995153023484,1.7794787396339098
8.432989696,0.9999978713886398,-0.7801657600506922
8.474226688,0.999996403054611,-3.341098469272934
8.51546368,0.9999950633138505,-5.9034420494509945
8.556701184,0.9999937504679659,-8.46731514864058
8.597938176,0.9999926610163864,-11.032766593988837
8.63917568,0.9999917123778977,-13.599934726027465
8.68041216,0.999991069834417,-16.168912092394145
8.721649664,0.9999905376960166,-18.739776492086417
8.762886144,0.9999901278855444,-21.312647701134555
8.804123648,0.9999899933478017,-23.887576958190838
8.845361152,0.9999901130767457,-26.464698888883248
8.886597632,0.999990457397217,-29.044071589194328
8.927835136,0.9999910630954006,-31.625780950472315
8.96907264,0.999991755683868,-34.20992083896648
9.01030912,0.9999926893131108,-36.79655042017107
9.051546624,0.9999939073953511,-39.38581016447974
9.092783104,0.9999952085490216,-41.97768398366185
9.134020608,0.9999965713751406,-44.572298032255226
9.175258112,0.9999981493971539,-47.16972675690165
9.216494592,0.9999998717386596,-49.77000787382871
9.257732096,1.000001501536018,-52.373234363797884
9.298968576,1.0000032872019835,-54.97945818581401
9.34020608,1.000005009051985,-57.588701992281926
9.381443584,1.0000067680152607,-60.201085875640565
9.422680064,1.000008352690641,-62.81658887298754
9.463917568,1.0000099488120868,-65.43531331902449
9.505155072,1.0000113959794321,-68.05728463813693
9.546391552,1.0000127463458472,-70.68252232147323
9.587629056,1.0000138670681673,-73.31109481240182
9.628865536,1.0000147398440857,-75.94300008814695
9.67010304,1.0000154299709263,-78.57830244927364
9.711340544,1.000015802683608,-81.21700341324838
9.752577024,1.0000159712424983,-83.85913235068307
9.793814528,1.0000157584984917,-86.50470204731961
9.835052032,1.000015267827791,-89.15370484781657
9.876288512,1.000014531301391,-91.80620074486946
9.917526016,1.000013370688973,-94.46215041282545
9.958762496,1.0000120769545264,-97.12155523394591
10.0,1.000010378300461,-99.78443303437568
10.041237504,1.0000083316092767,-102.45076215986617
10.082473984,1.0000060688188592,-105.12053115797099
10.123711488,1.0000034712844958,-107.79371977754457
10.164947968,1.0000007541605258,-110.47031978061258
10.206185472,0.9999978358075869,-113.15029985915153
10.247422976,0.999994689869985,-115.83362834775143
10.288659456,0.999991358718018,-118.52027774453633
10.32989696,0.9999880246365842,-121.21019786764944
10.371134464,0.999984603474906,-123.90337362798799
10.412370944,0.9999811228343314,-126.59974185395104
10.453608448,0.9999776271752384,-129.29924988608866
10.494844928,0.99997424071023,-132.00186336332825
10.536082432,0.9999709936421737,-134.70749316903184
10.577319936,0.9999679544018207,-137.41612258366726
10.618556416,0.9999650712422355,-140.12766250260356
10.65979392,0.9999624411829572,-142.84201548055924
10.701031424,0.9999600772967056,-145.55918277264644
10.742267904,0.9999580403433576,-148.27903392161392
10.783505408,0.9999563547649926,-151.00149834401657
10.824741888,0.9999551040778999,-153.72650349811477
10.865979392,0.9999542405297828,-156.45396406461927
10.907216896,0.9999538615355908,-159.18379404937207
10.948453376,0.9999539657718026,-161.91588460046847
10.98969088,0.9999544076111216,-164.65014151056118
11.03092736,0.9999553800058154,-167.38648439353835
11.072164864,0.9999569331040526,-170.1248180971047
11.113402368,0.9999589657536034,-172.86499159184456
11.154638848,0.9999613140087628,-175.60693851304094
11.195876352,0.9999640899762794,-178.35054424280239
11.237113856,0.999967430815222,178.90430594907542
11.278350336,0.9999710733895991,176.15774594478324
11.31958784,0.9999751238513789,173.40987607443319
11.36082432,0.9999794344987891,170.6607953705504
11.402061824,0.9999840639243628,167.91065742581478
11.443299328,0.9999889360880119,165.15958024239282
11.484535808,0.9999939759651163,162.4076775062801
11.525773312,0.9999990753721939,159.65509486274345
11.567010816,1.00000420061319,156.90192579647166
11.608247296,1.0000094061829603,154.14832706776428
11.6494848,1.0000144222553065,151.39441830283735
11.69072128,1.0000195757702186,148.64033805762705
11.731958784,1.0000242780872748,145.88621556047175
11.773196288,1.0000287539390051,143.13218140395892
11.814432768,1.00003307831806,140.37836229931332
11.855670272,1.000036811540728,137.6249036496022
11.896906752,1.0000403291301017,134.8719269580368
11.938144256,1.0000432128492627,132.11958091769392
11.97938176,1.000045593794554,129.36795662784903
12.02061824,1.000047527234398,126.6172041314877
12.061855744,1.000048725798566,123.86748622059935
12.103093248,1.0000494154280866,121.11888793279768
12.144329728,1.0000494420992405,118.37155302730412
12.185567232,1.0000487808507552,115.62560408384421
12.226803712,1.0000473892379749,112.88116757681404
12.268041216,1.0000453840991306,110.138343109576
12.30927872,1.0000426831285196,107.39728696897906
12.3505152,1.0000393573585025,104.6580846956635
12.391752704,1.0000355175837694,101.92086027560084
12.432989184,1.0000309466367485,99.18571784822585
12.474226688,1.000025758520096,96.45276891782457
12.515464192,1.0000201480885191,93.72211798599527
12.556700672,1.0000140692065846,90.99386722917808
12.597938176,1.0000075698185316,88.26810988299874
12.63917568,1.000000692310981,85.54492513283114
12.68041216,0.999993542893042,82.82442399742831
12.721649664,0.9999861233813836,80.10668428742746
12.762886144,0.999978680174398,77.39177968070591
12.804123648,0.9999710415231852,74.67980280236509
12.845361152,0.9999634413650086,71.97079874487115
12.886597632,0.9999559026083833,69.26486405021163
12.927835136,0.9999485815957723,66.56202893113691
12.96907264,0.9999415146568718,63.862386178720115
13.01030912,0.9999347159029843,61.165984922924565
13.051546624,0.9999282881799516,58.47284866724315
13.092783104,0.999922366195133,55.783055874733066
13.134020608,0.9999168555077749,53.096605685532595
13.175258112,0.9999120738608327,50.4135875824421
13.216494592,0.9999078100571546,47.73398356802918
13.257732096,0.9999043136281116,45.05786020007815
13.298968576,0.9999013634116047,42.38520632702842
13.34020608,0.9998993626136898,39.7160618828299
13.381443584,0.9998981635490106,37.05042320193189
13.422680064,0.9998977187872484,34.3883155220932
13.463917568,0.9998980141988387,31.72974984774848
13.505155072,0.9998992335091748,29.074708838558127
13.546391552,0.9999012000186055,26.423195772542993
13.587629056,0.9999039796501896,23.77520676140709
13.628865536,0.9999076345918309,21.13072932402862
13.67010304,0.9999119466364956,18.489737784113448
13.711340544,0.9999170815621139,15.852229466516555
13.752577024,0.999922711066853,13.21817666208199
13.793814528,0.9999291473050512,10.587576268882284
13.835052032,0.9999359078950606,7.960355263850167
13.876288512,0.9999434191688814,5.336520249610532
13.917526016,0.9999511511294272,2.7160154215988555
13.958762496,0.9999594062772986,0.09881544649873925
14.0,0.9999678487056989,-2.5151366608565
