freq,mag,phase
6.0,1.00034805121762,-170.82023126797057
6.003278848,1.0003286216171743,-171.04182084813047
6.006557184,1.0002895473998668,-171.26296342856685
6.009836032,1.0002329529244072,-171.48349666133532
6.01311488,1.0001623649482236,-171.7030897159886
6.016393216,1.000082121288346,-171.92160375041212
6.019672064,0.999996984288383,-172.13895389251644
6.022950912,0.9999122976974334,-172.3551012686266
6.02622976,0.9998332851431894,-172.57007721686247
6.029508096,0.9997647643868574,-172.78401482399684
6.032786944,0.999710891278219,-172.9970884650773
6.036065792,0.999675130057579,-173.2095065250203
6.039344128,0.9996595184115405,-173.42155494442108
6.042622976,0.9996652318088084,-173.6335682360497
6.045901824,0.9996917177440334,-173.84579350258514
6.04918016,0.9997375827629197,-174.05854841464947
6.052459008,0.9997999788450986,-174.2720725099713
6.055737856,0.9998750050141129,-174.48659548048545
6.059016192,0.9999581442699668,-174.7022514960909
6.06229504,1.0000442811119732,-174.9191256458134
6.065573888,1.0001281652766518,-175.13721332636857
6.068852224,1.000204567740197,-175.35645777020628
6.072131072,1.0002688156448427,-175.57673885885524
6.07540992,1.0003170939687298,-175.7978063266344
6.078688768,1.0003461371899363,-176.01944633689564
6.081967104,1.000354341045487,-176.24135451981786
6.085245952,1.0003412504323734,-176.46324737522016
6.0885248,1.000307456887376,-176.6847917077475
6.091803136,1.0002550962196302,-176.90575411002226
6.095081984,1.0001872526690831,-177.1258326271342
6.098360832,1.0001083310406809,-177.34490579474726
6.101639168,1.0000229087899657,-177.56281186085522
6.104918016,0.9999364168201825,-177.7794704076722
6.108196864,0.9998539520898345,-177.9949183566281
6.1114752,0.9997806902369991,-178.20928215226976
6.114754048,0.999721240096459,-178.4226937237155
6.118032896,0.9996790691968209,-178.63538742649158
6.121311232,0.9996568691529056,-178.8476046190187
6.12459008,0.9996561800665409,-179.05966514282383
6.127868928,0.999676778549293,-179.27188622487873
6.131147776,0.9997177007070155,-179.4845190932627
6.134426112,0.9997763121090983,-179.69791086749322
6.13770496,0.9998490623315888,-179.91222098013696
6.140983808,0.9999314914049381,179.87237803125615
6.144262144,1.0000185308956762,179.655712161091
6.147540992,1.0001047612727367,179.43784574212924
6.15081984,1.000185240799875,179.21877028879106
6.154098176,1.000254575062384,178.9986004502377
6.157377024,1.0003087307997354,178.77755228054912
6.160655872,1.0003444447192926,178.555852522245
6.163934208,1.0003593182944932,178.33377819254608
6.167213056,1.0003524420547614,178.11168150156277
6.170491904,1.000324331011849,177.88977331192012
6.17377024,1.000276630540074,177.66843774220138
6.177049088,1.0002120917403259,177.44788394531795
6.180327936,1.000134963039095,177.22831944148814
6.183606784,1.000049765993184,177.00992140800614
6.18688512,0.9999616761381938,176.79276439871973
6.190163968,0.999876232771471,176.57684660386795
6.193442816,0.9997985295762052,176.36208946658223
6.196721152,0.9997335382394531,176.14833783605437
6.2,0.9996851647905126,175.9354183169656
6.203278848,0.9996562694063293,175.72303601760964
6.206557184,0.9996488695834733,175.5109157267915
6.209836032,0.9996633809456348,175.29874220499596
6.21311488,0.9996988884442986,175.08622578643647
6.216393216,0.999753218378256,174.8730881004707
6.219672064,0.9998231487898418,174.65900313031688
6.222950912,0.9999043022806708,174.44384505732015
6.22622976,0.9999917797544814,174.2274944129555
6.229508096,1.000080181103908,174.00989037920792
6.232786944,1.0001640953731776,173.79104576644107
6.236065792,1.0002382949295179,173.57105732578574
6.239344128,1.0002984449094185,173.35012625774647
6.242622976,1.0003405351279426,173.12841234161965
6.245901824,1.0003621094842354,172.9062760718606
6.24918016,1.0003619170125586,172.6839763255618
6.252459008,1.000339753347141,172.46183307645188
6.255737856,1.0002970886221108,172.24013294291163
6.259016192,1.000236373823616,172.0191733220348
6.26229504,1.0001615390569687,171.7991840427814
6.265573888,1.0000769734118655,171.58033657499476
6.268852224,0.9999878477770571,171.3626987923132
6.272131072,0.9998998200070641,171.14635724916653
6.27540992,0.9998180468634873,170.9312288007514
6.278688768,0.9997477971986454,170.7171612114081
6.281967104,0.9996930947761185,170.50401261307212
6.285245952,0.9996576089413586,170.29149253157613
6.2885248,0.9996433824045499,170.07933638877068
6.291803136,0.9996513942435546,169.8672176629225
6.295081984,0.9996810776760322,169.65484744784325
6.298360832,0.9997308891032852,169.44190605922307
6.301639168,0.999797398708937,169.2281363049312
6.304918016,0.9998767612254408,169.01331365746435
6.308196864,0.9999642834632706,168.79729754376936
6.3114752,1.000054222150551,168.58001088742986
6.314754048,1.0001413690223298,168.361449095545
6.318032896,1.0002201360177332,168.14170732694663
6.321311232,1.0002859392442052,167.92092665086437
6.32459008,1.000334477165146,167.69933609316092
6.327868928,1.0003629634352516,167.4771789599619
6.331147776,1.000369495856656,167.25477997526934
6.334426112,1.0003536949950604,167.03244128698657
6.33770496,1.0003164318666746,166.8104676985736
6.340983808,1.0002601481339486,166.58916465494508
6.344262144,1.0001880350461683,166.36877333147584
6.347540992,1.0001046569623342,166.14948879118762
6.35081984,1.000015002843109,165.93147140676822
6.354098176,0.9999247886417726,165.7146990934868
6.357377024,0.9998392449887699,165.49918195605227
6.360655872,0.9997639634663742,165.28484214862291
6.363934208,0.9997032249881225,165.07145547615855
6.367213056,0.9996610342464692,164.85883331932314
6.370491904,0.9996399002042539,164.64666159156104
6.37377024,0.9996412407848015,164.4346024829365
6.377049088,0.9996649050506485,164.22240438577217
6.380327936,0.999709344663617,164.009711610829
6.383606784,0.9997721400899472,163.79625968028623
6.38688512,0.9998493146706477,163.58177247510017
6.390163968,0.9999360645308847,163.36613158700195
6.393442816,1.0000273030477496,163.14926253068012
6.396721152,1.0001171720020334,162.93105992415238
6.4,1.0002003258579801,162.71163458740943
6.403278848,1.0002714925091265,162.49108534325055
6.406557184,1.0003264576747746,162.2696371120236
6.409836032,1.0003619224645868,162.047548694551
6.41311488,1.000375357921646,161.82510414629493
6.416393216,1.0003662021398616,161.60264389311817
6.419672064,1.0003346223323732,161.3804426495762
6.422950912,1.0002830935716847,161.15885079132482
6.42622976,1.0002143994723933,160.93812248640444
6.429508096,1.000132675521673,160.7184471892401
6.432786944,1.0000431497374098,160.50000700373516
6.436065792,0.9999510235422197,160.2828840634795
6.439344128,0.9998622339710223,160.06703558717794
6.442622976,0.9997820634571166,159.8524190860044
6.445901824,0.9997154445904887,159.63882679948998
6.44918016,0.9996666574856334,159.4260563481113
6.452459008,0.9996384231175348,159.2138830006222
6.455737856,0.9996327459283681,159.00194281164383
6.459016192,0.9996498946652024,158.78990793218588
6.46229504,0.9996889349519946,158.57749885776244
6.465573888,0.9997474547193321,158.3643909080761
6.468852224,0.9998217878953807,158.15032971472476
6.472131072,0.999907457738766,157.9351185367325
6.47540992,0.9999992558958073,157.71863067749044
6.478688768,1.000091473496126,157.50086266538244
6.481967104,1.0001785747553398,157.2817915364938
6.485245952,1.0002550260295437,157.06156531296153
6.4885248,1.0003163350727453,156.84033852935792
6.491803136,1.000358590679688,156.61839409140603
6.495081984,1.0003791931812136,156.3959826273087
6.498360832,1.0003767904697494,156.17344344719075
6.501639168,1.000351703303934,155.95112235422002
6.504918016,1.000305268059319,155.72925747704036
6.508196864,1.000240232324944,155.50823185026297
6.5114752,1.0001609130665483,155.28825539975372
6.514754048,1.0000717755112551,155.0694195170944
6.518032896,0.9999785026063281,154.85194932848825
6.521311232,0.9998867167880026,154.63578026628463
6.52459008,0.9998020722214165,154.42089854666918
6.527868928,0.9997297314716974,154.20711083077717
6.531147776,0.99967431449548,153.9942590724703
6.534426112,0.999639217990377,153.78206581540837
6.53770496,0.9996262852149556,153.57023680744877
6.540983808,0.9996367194662945,153.35838609498606
6.544262144,0.9996699089125799,153.14624740237835
6.547540992,0.9997235449004302,152.93351950619783
6.55081984,0.9997946008727149,152.71989111973778
6.554098176,0.9998786786078809,152.5051495052817
6.557377024,0.9999705926256679,152.28917045499145
6.560655872,1.0000646253486563,152.07184286206973
6.563934208,1.0001552550340076,151.85323572143045
6.567213056,1.0002367204237272,151.63335764668034
6.570491904,1.0003040645730947,151.41241989188964
6.57377024,1.000353184114878,151.1906830636757
6.577049088,1.0003810971154503,150.96837932333176
6.580327936,1.0003857931677889,150.7458416572191
6.583606784,1.0003670872589332,150.52343577957623
6.58688512,1.000326258629731,150.3014113490125
6.590163968,1.0002657591919775,150.08014883501798
6.593442816,1.0001891151808977,149.85981956220286
6.596721152,1.0001009718475928,149.6406867764723
6.6,1.0000070230681601,149.4228893492119
6.603278848,0.9999126007771942,149.20640913124137
6.606557184,0.9998240028370023,148.99127376794485
6.609836032,0.9997461868167157,148.77732626149103
6.61311488,0.999684251833646,148.56436527948108
6.616393216,0.9996419413081404,148.35218815050393
6.619672064,0.9996219401603593,148.14043906176647
6.622950912,0.9996253701796062,147.92882590704363
6.62622976,0.9996520642914681,147.71699596687762
6.629508096,0.9997006449347478,147.50465013238724
6.632786944,0.9997678118749674,147.29148356150728
6.636065792,0.9998496983486124,147.07724607078663
6.639344128,0.9999411479146568,146.86177217556943
6.642622976,1.0000366801549205,146.64499252344152
6.645901824,1.000130322909209,146.42683398510383
6.64918016,1.0002164829232938,146.20742082641218
6.652459008,1.0002897191456914,145.98685047557302
6.655737856,1.0003456129498811,145.76537593556813
6.659016192,1.0003806407598839,145.54322594205766
6.66229504,1.0003926191369057,145.3207977298698
6.665573888,1.0003810080422664,145.0983067387308
6.668852224,1.0003462473602722,144.87619764058024
6.672131072,1.0002904156175472,144.6547025038411
6.67540992,1.0002170778719077,144.4341483073708
6.678688768,1.0001305641668818,144.2147449469166
6.681967104,1.0000363347568506,143.9966418078092
6.685245952,0.9999400655376355,143.7798981462333
6.6885248,0.9998475876634109,143.56451333370546
6.691803136,0.9997647379083185,143.35037709326016
6.695081984,0.9996965011575037,143.13735480108858
6.698360832,0.9996470863961596,142.92515669896994
6.701639168,0.9996195241167637,142.71352336090519
6.704918016,0.9996157421702854,142.50215069254463
6.708196864,0.999635845177962,142.2906259819845
6.7114752,0.9996786166890079,142.07868072523377
6.714754048,0.9997414414608574,141.86599236234198
6.718032896,0.9998206045167105,141.65230009310937
6.721311232,0.9999110857628103,141.43741700804523
6.72459008,1.0000075150847398,141.2211860444843
6.727868928,1.0001038733737775,141.00357594404005
6.731147776,1.0001943305330605,140.78465100954028
6.734426112,1.0002731903050803,140.56450823944462
6.73770496,1.0003356449352596,140.3433581546986
6.740983808,1.0003780267692421,140.1214684798906
6.744262144,1.0003976194943591,139.89916625471028
6.747540992,1.0003929305827852,139.67671891604925
6.75081984,1.0003646449145682,139.45452530559723
6.754098176,1.0003140842624108,139.23290912111761
6.757377024,1.0002445239932614,139.01213876076565
6.760655872,1.0001602981781412,138.79247900207199
6.763934208,1.0000663263043532,138.57410439593903
6.767213056,0.999968530835428,138.35710583716798
6.770491904,0.9998727765764731,138.1414998414824
6.77377024,0.9997851272387945,137.92720351992583
6.777049088,0.9997107718322937,137.71407395586823
6.780327936,0.9996544217128956,137.5019038194905
6.783606784,0.9996193882065693,137.29039878461188
6.78688512,0.9996081872828476,137.0792207522323
6.790163968,0.9996212413471334,136.86805232092013
6.793442816,0.999657890708613,136.65652283074488
6.796721152,0.9997158027599475,136.44435795625455
6.8,0.9997915575555185,136.2312225366973
6.803278848,0.999880643631996,136.01691270402537
6.806557184,0.9999774014988939,135.80129665101288
6.809836032,1.0000758786511335,135.5842765460288
6.81311488,1.000170167058914,135.3658942127782
6.816393216,1.0002544788764614,135.14625132371043
6.819672064,1.0003235466050513,134.9255142971839
6.822950912,1.0003731458715082,134.70393669973424
6.82622976,1.000400281728337,134.48181946572365
6.829508096,1.0004030913795479,134.2594929523144
6.832786944,1.0003813889389337,134.03729228319892
6.836065792,1.0003367819793294,133.81558121236822
6.839344128,1.0002716573341053,133.5946393346801
6.842622976,1.00019008453313,133.37477073115056
6.845901824,1.0000969660993593,133.15615455546495
6.84918016,0.9999982127281137,132.93890418439761
6.852459008,0.9998996580203797,132.72308506140914
6.855737856,0.9998073831165837,132.5086427669501
6.859016192,0.999727311846249,132.295430972332
6.86229504,0.9996640337667073,132.0832874554782
6.865573888,0.9996215995482614,131.87186815911556
6.868852224,0.9996026067683862,131.66093855032196
6.872131072,0.9996084622363005,131.450097217704
6.87540992,0.9996384752792314,131.23902282121313
6.878688768,0.9996911614438929,131.02735127257094
6.881967104,0.9997631207050853,130.81480337693355
6.885245952,0.9998500450114959,130.6011364523629
6.8885248,0.999946511646108,130.386161788937
6.891803136,1.000046696357472,130.16979293491968
6.895081984,1.0001444605650065,129.9520214870536
6.898360832,1.000233767179167,129.73293106888897
6.901639168,1.000309148976214,129.51265156247806
6.904918016,1.0003659769498354,129.2914389317419
6.908196864,1.0004007581894372,129.06958106468448
6.9114752,1.0004111429586597,128.84741134478259
6.914754048,1.000396727925947,128.62525939712572
6.918032896,1.0003581870047977,128.40350593817436
6.921311232,1.000297932876857,128.18246233279055
6.92459008,1.0002196813772166,127.96238883573535
6.927868928,1.0001281001818776,127.74358588204498
6.931147776,1.000028898528138,127.52612804263906
6.934426112,0.9999279466678819,127.31010865132497
6.93770496,0.9998317277035543,127.09552163398432
6.940983808,0.9997459643150863,126.8822285868712
6.944262144,0.99967592871228,126.67008702090266
6.947540992,0.9996260820835933,126.45879523962341
6.95081984,0.9995994142179785,126.24806112603831
6.954098176,0.9995975805300464,126.03756516900833
6.957377024,0.9996208036419095,125.82692138338352
6.960655872,0.9996676344889432,125.61579580614864
6.963934208,0.9997351391883574,125.40385037301843
6.967213056,0.9998193899786701,125.19083444424218
6.970491904,0.9999150762075257,124.9765481413904
6.97377024,1.0000164385882733,124.7608653409774
6.977049088,1.0001172175536643,124.54375487003902
6.980327936,1.0002111605064528,124.3252463216768
6.983606784,1.0002926197688087,124.10548838985142
6.98688512,1.0003564922275756,123.88470491638645
6.990163968,1.0003988702753845,123.66319831140143
6.993442816,1.000417138501902,123.44123163672276
6.996721152,1.0004102412661586,123.21920825601002
7.0,1.0003782839509856,122.99745470741922
7.003278848,1.0003234808544936,122.77635460774684
7.006557184,1.0002490659975678,122.55614722540335
7.009836032,1.0001595215421373,122.3371363565748
7.01311488,1.0000603736653177,122.11948871052189
7.016393216,0.9999576819890924,121.90328706639835
7.019672064,0.999857889514722,121.6885531515811
7.022950912,0.9997667523575198,121.4751981211372
7.02622976,0.99969034996362,121.26304776889103
7.029508096,0.9996330182834882,121.0518751760205
7.032786944,0.9995984821107377,120.84137257729051
7.036065792,0.9995888342376238,120.6311901924149
7.039344128,0.9996048172733,120.42098096503436
7.042622976,0.9996452824120359,120.21039349889897
7.045901824,0.9997079974419752,119.99907498445334
7.04918016,0.9997888722908155,119.78673684004508
7.052459008,0.9998831871825336,119.57317494212612
7.055737856,0.9999850849726426,119.35820597949976
7.059016192,1.0000882945842338,119.14179725352275
7.06229504,1.0001866213632586,118.92394555836155
7.065573888,1.0002737441273524,118.70477076682687
7.068852224,1.000344610574575,118.48448834964987
7.072131072,1.0003946917483146,118.26334929277027
7.07540992,1.000420953528815,118.04166672678106
7.078688768,1.0004216622026052,117.81982091504675
7.081967104,1.000396848234381,117.59811525532271
7.085245952,1.00034791640662,117.37698484002384
7.0885248,1.0002778555229064,117.15670481465108
7.091803136,1.0001909349184808,116.93752518607666
7.095081984,1.0000925293661234,116.71971200491001
7.098360832,0.9999885991444,116.50335917292857
7.101639168,0.9998855413622368,116.28847292182404
7.104918016,0.9997896490529042,116.07504521216644
7.108196864,0.9997068308494677,115.86289442645597
7.1114752,0.9996422403159756,115.65181111993934
7.114754048,0.9995998188725487,115.44151689764303
7.118032896,0.9995821657452145,115.23167665592369
7.121311232,0.999590511059876,115.02190781253493
7.12459008,0.9996242156361073,114.8118452653618
7.127868928,0.999681455274525,114.60116833864522
7.131147776,0.9997586336042051,114.38951880479337
7.134426112,0.9998509340453833,114.1766929521918
7.13770496,0.9999528512281541,113.96249643006156
7.140983808,1.000058038582905,113.74680876124299
7.144262144,1.0001601856663234,113.52967525089714
7.147540992,1.0002527770274707,113.31114410900959
7.15081984,1.000330525878564,113.09139808827194
7.154098176,1.0003881936566053,112.87070716012404
7.157377024,1.0004223629039473,112.64938359274164
7.160655872,1.0004311144026294,112.42774142593048
7.163934208,1.0004136020919363,112.20616528986771
7.167213056,1.0003710763235507,111.9850414900867
7.170491904,1.0003060318851456,111.76469356411104
7.17377024,1.0002223824035061,111.54541518831743
7.177049088,1.0001253346341257,111.32742354620822
7.180327936,1.0000206291714981,111.11091473213001
7.183606784,0.9999148999668158,110.89591586996427
7.18688512,0.999814650690479,110.68240240465258
7.190163968,0.999725729773467,110.47024382155367
7.193442816,0.9996540309687535,110.25924700354756
7.196721152,0.999603644634122,110.04915164215998
7.2,0.9995779336278946,109.83962464821508
7.203278848,0.999578361371227,109.63029107409473
7.206557184,0.9996048621900067,109.42075936164025
7.209836032,0.9996561243884678,109.21071735270078
7.21311488,0.9997288260151466,108.99979745181263
7.216393216,0.9998185736002864,108.78771896256956
7.219672064,0.9999199696614284,108.57430306877842
7.222950912,1.000026524868146,108.35940792096673
7.22622976,1.0001319391088188,108.1430108689592
7.229508096,1.0002297481418305,107.92516405593227
7.232786944,1.000313817377505,107.70603119060243
7.236065792,1.0003790964064343,107.48585021312373
7.239344128,1.000421433182895,107.26490511242633
7.242622976,1.000438327733011,107.04355448060679
7.245901824,1.0004286230588422,106.82215630113228
7.24918016,1.0003928547973528,106.60110100099601
7.252459008,1.0003333077862238,106.38070558761477
7.255737856,1.0002534935550138,106.16135275727892
7.259016192,1.0001582607961979,105.94324518637283
7.26229504,1.0000536172761683,105.72655983918712
7.265573888,0.9999457747080046,105.51144150056868
7.268852224,0.9998413392496095,105.29784608927808
7.272131072,0.9997468235770136,105.08567324003532
7.27540992,0.9996681242577585,104.8747690206289
7.278688768,0.9996099492202821,104.66486340232804
7.281967104,0.9995759514193704,104.4556451340746
7.285245952,0.999568254967657,104.24672012325432
7.2885248,0.9995873189034088,104.03772753361312
7.291803136,0.9996321520700979,103.82831907362103
7.295081984,0.9996998181532643,103.61809931274462
7.298360832,0.9997863586077814,103.40681232559707
7.301639168,0.9998864056977995,103.19419691541508
7.304918016,0.9999938911352507,102.98011504832883
7.308196864,1.0001021968650814,102.76450644640587
7.3114752,1.0002046465188823,102.54741097560142
7.314754048,1.0002949009918338,102.32892110349756
7.318032896,1.0003675771155367,102.10930351133538
7.321311232,1.000418074101002,101.88882000718544
7.32459008,1.000443220154459,101.66778962227819
