freq,mag,phase
6.0,0.9994132760425369,-118.6816247347015
6.002285056,0.9995791303810923,-118.81127287187468
6.004570112,0.9997713636142921,-118.94354675995538
6.006855168,0.9999782436749857,-119.07865493730496
6.009140224,1.0001865931077762,-119.21686933587797
6.01142528,1.0003832131344441,-119.35798766743025
6.013710336,1.0005557978777897,-119.50178374719155
6.015995392,1.0006932636200498,-119.64785482968769
6.018280448,1.000787029443297,-119.79560910638678
6.020565504,1.0008310440321777,-119.94437374246043
6.02285056,1.000822502364042,-120.09338406297792
6.025135616,1.0007620497626941,-120.24191143712689
6.027420672,1.0006533856737427,-120.38923430437009
6.029705728,1.0005033402648411,-120.53466279386609
6.031990784,1.0003213676941591,-120.67766690668388
6.03427584,1.0001190628249557,-120.81790448194972
6.036560896,0.9999092039589224,-120.95513096791774
6.038845952,0.9997050988801978,-121.08938597717608
6.041131008,0.9995195555578096,-121.22079170872118
6.043416064,0.9993645874154667,-121.34968864387645
6.04570112,0.9992498365559327,-121.47668129851307
6.047986176,0.9991825446089276,-121.60234574629884
6.050271232,0.9991672996882983,-121.72736429316406
6.052556288,0.9992048905843145,-121.85256840697927
6.054841344,0.9992929689076091,-121.97867628795257
6.0571264,0.9994260128323643,-122.10639596775367
6.059411456,0.9995954536871072,-122.23632964661363
6.061696512,0.999790794594127,-122.36890610067596
6.063981568,0.9999995153673689,-122.50442100133043
6.066266624,1.0002083565809263,-122.6429785074425
6.06855168,1.0004041577360923,-122.78448842735641
6.070836736,1.0005745298729583,-122.92864835405236
6.073121792,1.0007086347785281,-123.07502268159524
6.075406848,1.0007980284505904,-123.22303739202214
6.077691904,1.0008369914847364,-123.37196044089073
6.07997696,1.0008230425862008,-123.5210832053073
6.082262016,1.0007570914691397,-123.66962587682418
6.084547072,1.0006432455060155,-123.81684809997057
6.086832128,1.0004886978474832,-123.96215798540757
6.089117184,1.0003032372918335,-124.1049982132088
6.09140224,1.0000983846688951,-124.24504353984473
6.093687296,0.9998873377517662,-124.38199729412081
6.095972352,0.9996834681872122,-124.51595284286395
6.098257408,0.99949952854874,-124.64711738463845
6.100542464,0.9993473127269513,-124.7758189055346
6.10282752,0.9992365969611753,-124.90257957408197
6.105112576,0.9991742472090941,-125.02811278016694
6.107397632,0.9991642374608978,-125.15310397922649
6.1096832,0.9992073617392573,-125.27834923745579
6.111968256,0.9993007571323894,-125.40456331185133
6.114253312,0.9994386793660598,-125.53249208944729
6.116538368,0.9996123228729953,-125.6626822489963
6.118823424,0.9998105868870424,-125.79554707614376
6.12110848,1.000021045768763,-125.93139446045383
6.123393536,1.0002303099074374,-126.07033630657418
6.125678592,1.0004250830374193,-126.21216763077003
6.127963648,1.0005931712762621,-126.35663535491136
6.130248704,1.0007236977044642,-126.50331780592141
6.13253376,1.000808664975509,-126.65153018906607
6.134818816,1.0008424930330897,-126.80058247808695
6.137103872,1.0008230398710145,-126.94977587791142
6.139388928,1.000751605994361,-127.09834390981916
6.141673984,1.0006325284923463,-127.24547071290489
6.14395904,1.0004734970227718,-127.39060498783475
6.146244096,1.0002844594370741,-127.53321996654371
6.148529152,1.0000773346115481,-127.67296299265949
6.150814208,0.9998653482595072,-127.80964694291977
6.153099264,0.9996616764058017,-127.9433251288656
6.15538432,0.9994795684569048,-128.07419754633523
6.157669376,0.9993304079379021,-128.20263924863434
6.159954432,0.9992236515863198,-128.32920617001372
6.162239488,0.9991662027091417,-128.45460541520228
6.164524544,0.9991615942095475,-128.57954296891904
6.1668096,0.9992102483886012,-128.70478796497275
6.169094656,0.9993091039338656,-128.83110868804053
6.171379712,0.9994517682741433,-128.95919273728916
6.173664768,0.9996294764719613,-129.08960374970243
6.175949824,0.999830684938018,-129.222761349141
6.17823488,1.00004277316803,-129.3589239457856
6.180519936,1.0002523347511414,-129.4981747528599
6.182804992,1.0004460015479404,-129.64031117686164
6.185090048,1.0006114931165553,-129.78510331493854
6.187375104,1.0007385500251096,-129.93198576917138
6.18966016,1.000818905765797,-130.0803885357066
6.191945216,1.00084746153168,-130.22959336829268
6.194230272,1.000822547397107,-130.37881969290544
6.196515328,1.0007455888903876,-130.52726860713696
6.198800384,1.0006213401797142,-130.67429297455567
6.20108544,1.0004578772900639,-130.81922994260628
6.203370496,1.0002654242942077,-130.96159686468258
6.205655552,1.0000560730849735,-131.10104266621326
6.207940608,0.9998430873444198,-131.23739252432603
6.210225664,0.9996400337911469,-131.37074352710565
6.21251072,0.9994597617077077,-131.5012870795577
6.214795776,0.9993137031866467,-131.62947442703407
6.217080832,0.9992111124287153,-131.755812018855
6.219365888,0.9991586776005826,-131.8810577912999
6.221650944,0.999159558847453,-132.00589294301363
6.223936,0.9992138243925234,-132.13113082836557
6.226221056,0.9993179916795815,-132.25754056213512
6.228506112,0.9994656431333768,-132.38575624056136
6.230791168,0.9996472126604311,-132.51636286747788
6.233076224,0.9998511471246955,-132.6497996468224
6.23536128,1.0000648413964597,-132.7862501755521
6.237646336,1.0002744614908297,-132.92577636701483
6.239931392,1.0004669080244668,-133.0682367466265
6.242216448,1.0006298682986736,-133.21326256054837
6.244501504,1.0007531063371649,-133.3603540229088
6.24678656,1.0008288699503238,-133.50893030687553
6.249071616,1.0008521905022736,-133.65815912032755
6.251356672,1.0008215919497305,-133.80738966953257
6.253641728,1.000739075912198,-133.95579239795723
6.255926784,1.0006098692165046,-134.10267190829367
6.25821184,1.0004420169983934,-134.2473601621733
6.260496896,1.0002460988479713,-134.3894361990785
6.262781952,1.0000346005679936,-134.52851415798554
6.265067008,0.9998208014027322,-134.66452200062008
6.267352064,0.9996184309507271,-134.79753245822974
6.26963712,0.9994401826175147,-134.9277341791293
6.271922176,0.9992973600719469,-135.05562379969905
6.274207232,0.9991991187824998,-135.18172464820503
6.276492288,0.9991516827493595,-135.3067503245054
6.278777344,0.9991581559899131,-135.43151709147094
6.2810624,0.9992179965416861,-135.5567186098379
6.283347456,0.9993275920224665,-135.68317157023247
6.285632512,0.9994799145604446,-135.81151066192842
6.287917568,0.999665280419708,-135.94230591736707
6.290202624,0.9998721075425312,-136.0759598046649
6.29248768,1.0000870805572977,-136.21266755702598
6.294772736,1.0002966565428761,-136.35248927960214
6.297057792,1.0004877679972224,-136.49519747132777
6.299342848,1.0006480574953518,-136.640453106289
6.301627904,1.0007673703111288,-136.78773274604285
6.30391296,1.000838361491525,-136.936432077336
6.306198016,1.0008561726120246,-137.08572190517955
6.308483072,1.00082008360583,-137.23488264471504
6.310768128,1.0007320137130036,-137.383178839326
6.313053184,1.0005976464774173,-137.52984184039383
6.31533824,1.0004254557983685,-137.6742746535384
6.317623296,1.0002262692201955,-137.81598353726181
6.319908352,1.000012716323541,-137.9547305099038
6.322193408,0.9997983882968191,-138.0903854050023
6.324478976,0.9995967129190407,-138.22295845055376
6.326764032,0.999420587306273,-138.35283220089403
6.329049088,0.9992811449481174,-138.48036762502196
6.331334144,0.9991873230888411,-138.60617092492308
6.3336192,0.9991449892993701,-138.73103067083565
6.335904256,0.9991570376023707,-138.85565042250357
6.338189312,0.9992226451528711,-138.98081789580735
6.340474368,0.9993374742019331,-139.10728500258492
6.342759424,0.9994945749954628,-139.23571988354593
6.34504448,0.9996837844928408,-139.36671103588574
6.347329536,0.9998931429874748,-139.5005474419839
6.349614592,1.0001094268569106,-139.63751794627245
6.351899648,1.0003190172574814,-139.7775788730007
6.354184704,1.0005084114439522,-139.92051694940417
6.35646976,1.0006658854760466,-140.06595567036064
6.358754816,1.0007811880086026,-140.21342604799116
6.361039872,1.0008472370477344,-140.36215041504337
6.363324928,1.0008597380853894,-140.51148529498002
6.365609984,1.0008178631651548,-140.66056125438848
6.36789504,1.0007242942985788,-140.80866736835705
6.370180096,1.0005848593126965,-140.95509775298865
6.372465152,1.0004083604084695,-141.09925925188008
6.374750208,1.0002059722399819,-141.2406051705658
6.377035264,0.9999904416469592,-141.37895479757142
6.37932032,0.999775602239579,-141.5141660240029
6.381605376,0.9995748882142046,-141.64635907015477
6.383890432,0.9994009989761878,-141.77579110639815
6.386175488,0.9992650804271525,-141.90297990203698
6.388460544,0.9991758379456775,-142.02850723482175
6.3907456,0.999138794068363,-142.15314277626695
6.393030656,0.9991564613788702,-142.27758417254287
6.395315712,0.9992276788562511,-142.40269738659697
6.397600768,0.999347907517864,-142.52918994579608
6.399885824,0.9995097113183251,-142.6577210624378
6.40217088,0.999702636939294,-142.78885550270923
6.404455936,0.9999145456605637,-142.92288425912898
6.406740992,1.0001320921432724,-143.06005843675476
6.409026048,1.0003413199164786,-143.2003050491579
6.411311104,1.0005290634785897,-143.34348664089893
6.41359616,1.000683505385211,-143.48908152824507
6.415881216,1.0007947066502199,-143.6366416818284
6.418166272,1.0008557781185896,-143.78544659801554
6.420451328,1.0008627903886862,-143.93474053227501
6.422736384,1.0008152177395544,-144.08369398788565
6.42502144,1.0007160494295935,-144.2316415297176
6.427306496,1.0005715167050635,-144.3777931230919
6.429591552,1.0003908182032977,-144.5215690804072
6.431876608,1.000185366375527,-144.66258619938907
6.434161664,0.9999680971158139,-144.80049713057863
6.43644672,0.9997527628018923,-144.93524452262125
6.438731776,0.9995531142507634,-145.06698424375557
6.441016832,0.9993816540228405,-145.19598882899794
6.443301888,0.9992494102534717,-145.32281343794824
6.445586944,0.9991647673424253,-145.44803725879189
6.447872,0.9991331240520027,-145.57239667514986
6.450157056,0.9991565051965382,-145.6967127324975
6.452442112,0.9992334387275456,-145.82170984473834
6.454727168,0.9993591020685221,-145.9481807253666
6.457012224,0.9995254669339597,-146.0767996024821
6.45929728,0.9997220589205753,-146.20806365534173
6.461582336,0.9999364049656001,-146.3422351538762
6.463867392,1.0001548953382235,-146.47962347442834
6.466152448,1.000363805442968,-146.62007650129013
6.468437504,1.0005497380406587,-146.76342633328636
6.47072256,1.0007010481433085,-146.90917621544784
6.473007616,1.0008080217318363,-147.05682230428374
6.475292672,1.0008640486305924,-147.20562783059512
6.477577728,1.0008653432883472,-147.35485563007364
6.479862784,1.0008120262215856,-147.50369998311936
6.48214784,1.0007072436100595,-147.65139326661912
6.484432896,1.0005577324836779,-147.7972232947963
6.486717952,1.0003728870260524,-147.940649417763
6.489003008,1.0001644132916536,-148.08122648409787
6.491288064,0.9999454610134773,-148.2186600899677
6.49357312,0.999729876880169,-148.3529308770912
6.495858176,0.9995313618893926,-148.48418292208544
6.498143232,0.9993624935486326,-148.61279313981362
6.500428288,0.9992340619300623,-148.73917595106514
6.502713344,0.9991541904576324,-148.86407344239836
6.5049984,0.999127961653167,-148.9881672594827
6.507283456,0.9991571427691391,-149.11229832123092
6.509568512,0.9992397677481154,-149.2371708252604
6.511853568,0.9993707041418124,-149.3636523758408
6.514138624,0.999541721025748,-149.49228098796095
6.51642368,0.9997418825073012,-149.62363487976597
6.518708736,0.9999586352131695,-149.75801837079274
6.520993792,1.00017802090973,-149.89553943961894
6.523278848,1.0003862821844807,-150.03615973193004
6.525563904,1.0005702314494356,-150.17962752094795
6.52784896,1.000718201456638,-150.3255360023059
6.530134016,1.0008209082271684,-150.47319683034092
6.532419072,1.0008716180236497,-150.62201803355168
6.534704128,1.0008672325017758,-150.77114113207583
6.536989184,1.0008080812217186,-150.91981802961212
6.53927424,1.000697835606379,-151.0672290220512
6.541559808,1.0005433060434121,-151.2127192692395
6.543844864,1.0003543638124759,-151.35575176651307
6.54612992,1.0001429177919108,-151.49583742967638
6.548414976,0.9999224158323409,-151.6327896394213
6.550700032,0.9997066737216063,-151.7665887798158
6.552985088,0.9995095396860382,-151.89734991437408
6.555270144,0.9993434034215322,-152.02544347676243
6.5575552,0.99921884182073,-152.1514014280081
6.559840256,0.9991439227941815,-152.27593155109884
6.562125312,0.9991231974133511,-152.3997451539873
6.564410368,0.9991582537847056,-152.5236237037465
6.566695424,0.9992466699965121,-152.64844849756946
6.56898048,0.9993830411472139,-152.7748365836832
6.571265536,0.9995585214426757,-152.90353349808814
6.573550592,0.999762227504042,-153.03496665890108
6.575835648,0.9999810961874154,-153.16944564910074
6.578120704,1.0002013710222655,-153.30712154081112
6.58040576,1.00040893007059,-153.44790094228446
6.582690816,1.0005907020366027,-153.59150778490942
6.584975872,1.0007352880188884,-153.73746000785377
6.587260928,1.0008334343715237,-153.88518594329983
6.589545984,1.0008788970013,-154.033926073898
6.59183104,1.0008687978382775,-154.18291799503905
6.594116096,1.00080374663648,-154.3314101596273
6.596401152,1.0006877587795686,-154.47851848108613
6.598686208,1.0005283372971736,-154.62367205096345
6.600971264,1.0003353853894148,-154.76624709741367
6.60325632,1.0001211483022026,-154.9058371490904
6.605541376,0.9998990241129719,-155.04225069586622
6.607826432,0.9996834166237323,-155.17549449101327
6.610111488,0.9994876777558733,-155.3057162969687
6.612396544,0.9993244221215449,-155.43332636557687
6.6146816,0.9992039828486691,-155.55884426467873
6.616966656,0.9991340631207738,-155.68298851826404
6.619251712,0.999118997219858,-155.80649338984887
6.621536768,0.9991599982487084,-155.93015443861395
6.623821824,0.9992542010496618,-156.0548371909517
6.62610688,0.9993958138823019,-156.18117931012526
6.628391936,0.9995759082923293,-156.30988655134976
6.630676992,0.9997829730843237,-156.44137351989596
6.632962048,1.0000039369106688,-156.5759841890763
6.635247104,1.000224816537141,-156.71375870003962
6.63753216,1.000431609080903,-156.85467159514823
6.639817216,1.0006111495393992,-156.9983661978868
6.642102272,1.0007521529955743,-157.14439827604994
6.644387328,1.00084559607296,-157.2920910948258
6.646672384,1.0008856437969806,-157.44078071858996
6.64895744,1.0008696751035266,-157.58961282819914
6.651242496,1.0007987094850403,-157.73780720394552
6.653527552,1.0006771945816813,-157.8846234229458
6.655812608,1.0005127522593016,-158.02934997930248
6.658097664,1.0003158118286213,-158.17142915048194
6.66038272,1.0000988306304261,-158.31048973326435
6.662667776,0.9998754226500971,-158.4463858684013
6.664952832,0.999659903944154,-158.57904605366699
6.667237888,0.9994659560202042,-158.70873817296308
6.669522944,0.9993056601504472,-158.83582601216443
6.671808,0.999189451779494,-158.96088462521152
6.674093056,0.9991246430106245,-159.0845842185831
6.676378112,0.9991153489065929,-159.20776319182355
6.678663168,0.9991622832980062,-159.3312329549688
6.680948224,0.9992622615112045,-159.45570883000244
6.68323328,0.9994092901384969,-159.58199438467346
6.685518336,0.9995938203603967,-159.71068796490212
6.687803392,0.9998042674483208,-159.84223963596796
6.690088448,1.0000271688736684,-159.9769039601091
6.692373504,1.000248498743509,-160.11481883276502
6.69465856,1.000454303211144,-160.25582051138096
6.696943616,1.0006314072345515,-160.399604990137
6.699228672,1.000768703668337,-160.54565694076226
6.701513728,1.0008574815734363,-160.69331034346737
6.703798784,1.000891949393111,-160.8418933108328
6.70608384,1.000870025986066,-160.99054102996195
6.708368896,1.0007930910062288,-161.1384590019765
6.710653952,1.000665910327515,-161.28488219618185
6.712939008,1.0004966413473297,-161.42916931402885
6.715224064,1.000295771180972,-161.57077212802352
6.71750912,1.0000761810692065,-161.70927060195612
6.719794176,0.9998516388627076,-161.84455290705097
6.722079232,0.9996363553132186,-161.97665151855472
6.724364288,0.9994441433909692,-162.10572021813664
6.726649344,0.9992871072889083,-162.2322849036862
6.7289344,0.9991752567519753,-162.35684239327486
6.731219456,0.9991157271705456,-162.48013816394678
6.733504512,0.9991122461219006,-162.6030108227327
6.735789568,0.999165205414278,-162.7261532572353
6.738074624,0.9992711375887512,-162.85048468966005
6.74035968,0.9994232839929786,-162.97668109689556
6.742644736,0.9996123394786063,-163.10536944553877
6.744929792,0.9998259914569356,-163.23691990559453
6.747214848,1.00005077006218,-163.3716928018096
6.749499904,1.00027253224805,-163.50969366844905
6.75178496,1.0004771577763925,-163.65077602682396
6.754070016,1.0006516666869338,-163.7945740562926
6.756355072,1.000784966089128,-163.94062730157012
6.75864064,1.0008687652361699,-164.088252915438
6.760925696,1.0008976679070924,-164.23667713687396
6.763210752,1.0008697861973663,-164.38510502528257
6.765495808,1.0007867801353725,-164.53269510122934
6.767780864,1.0006540457605444,-164.6787344702628
6.77006592,1.0004797697841983,-164.82255515607042
6.772350976,1.000275191321739,-164.96359757745302
6.774636032,1.0000529537366876,-165.1015172108226
6.776921088,0.9998274549471813,-165.2361991974943
6.779206144,0.9996126687093533,-165.36765206294987
6.7814912,0.9994223705293804,-165.49612802233736
6.783776256,0.9992687066348762,-165.62212406685902
6.786061312,0.9991612932889135,-165.74619421476754
6.788346368,0.9991071711502196,-165.869047326233
6.790631424,0.9991096425180528,-165.9915394879323
6.79291648,0.9991686750534833,-166.1144031629425
6.795201536,0.9992804722460775,-166.23857391052204
6.797486592,0.9994380684536431,-166.36464085962893
6.799771648,0.9996313537670983,-166.49328123330852
6.802056704,0.999848213133479,-166.62488953663402
6.80434176,1.0000747093592124,-166.75967112068955
6.806626816,1.0002966515824945,-166.89774601725784
6.808911872,1.0004999218930544,-167.03889676118146
6.811196928,1.0006717059833496,-167.18273312750506
6.813481984,1.0008011173724556,-167.3287710401862
6.81576704,1.0008798217884596,-167.4762796872504
6.818052096,1.0009029399232012,-167.624537964838
6.820337152,1.0008689496059062,-167.77272824254416
6.822622208,1.000779911734359,-167.91998094343649
6.824907264,1.0006415181756598,-168.06558660437983
6.82719232,1.0004624984138597,-168.2088990644101
6.829477376,1.0002540746079513,-168.34935437521233
6.831762432,1.0000295360644162,-168.48668085713675
6.834047488,0.9998029679972217,-168.62069031239284
6.836332544,0.9995888289107417,-168.75151068827375
6.8386176,0.9994007141103828,-168.87938129315174
6.840902656,0.9992504189768399,-169.0047572125367
6.843187712,0.9991476796294775,-169.12830930117065
6.845472768,0.999099120786275,-169.25072323184912
6.847757824,0.9991076358840103,-169.37279801354003
6.85004288,0.9991728523348267,-169.4954413656799
6.852327936,0.9992905408568457,-169.61936949781116
6.854612992,0.9994533794404956,-169.74533627814313
6.856898048,0.9996509502166969,-169.87392569703277
6.859183104,0.9998707050415667,-170.0055258969895
6.86146816,1.000098918246348,-170.1403841702784
6.863753216,1.0003210099800437,-170.27849136719877
6.866038272,1.000522790252479,-170.41967626664785
6.868323328,1.0006916170476812,-170.56350657391528
6.870608384,1.0008167931907526,-170.7094663591084
6.87289344,1.0008903117479717,-170.8568961842741
6.875178496,1.0009076000823112,-171.0049488821398
6.877463552,1.0008674010714813,-171.15283549970465
6.879748608,1.000772334165748,-171.29970719776458
6.882033664,1.0006282112977944,-171.44486179866576
6.88431872,1.000444402004392,-171.58763699299922
6.886603776,1.000232439891956,-171.72748736250762
6.888888832,1.0000054902125348,-171.86413623970802
6.891173888,0.9997781424913147,-171.99751262407716
6.893458944,0.999564806311273,-172.1276360681516
6.895744,0.9993789587175819,-172.2548665499589
6.898029056,0.9992323919978355,-172.37963743567732
6.900314112,0.9991345822170469,-172.5026320956504
6.902599168,0.9990915711808012,-172.6245812265966
6.904884224,0.999106205283717,-172.74626816166898
