freq,mag,phase
6.0,0.9999846051685694,155.6765557636485
6.041451008,0.9999789990491151,153.04718964935043
6.082901504,0.9999731384718841,150.42266973436455
6.124352512,0.9999674888381019,147.80296125710046
6.165803008,0.9999621083051439,145.1880417269751
6.207254016,0.9999570860033816,142.57780217724607
6.248704512,0.9999528232499867,139.97225842051816
6.29015552,0.999948859968604,137.37133211317334
6.331606016,0.9999455671904249,134.77502100364256
6.373057024,0.9999428241535187,132.1831837463046
6.41450752,0.9999406490203002,129.59584134227705
6.455958528,0.9999392762576381,127.01286233486506
6.497409536,0.9999383174817849,124.43419761791297
6.538860032,0.999938232855405,121.85979422950565
6.58031104,0.9999386617650229,119.28955185187701
6.621761536,0.999939672767141,116.72340592841273
6.663212544,0.9999415403226966,114.1612341754244
6.70466304,0.9999439134216884,111.60296896297947
6.746114048,0.9999469903412957,109.04852542084008
6.787564544,0.999950513162028,106.4978201683329
6.829015552,0.9999546672547752,103.95071694737041
6.87046656,0.9999593430018274,101.40716114534678
6.911917056,0.9999643511829108,98.86700757253011
6.953368064,0.9999699308242949,96.33018565285714
6.99481856,0.9999757881588691,93.79656876077162
7.036269568,0.999981930286723,91.26608236893411
7.077720064,0.9999883153362128,88.73854794465254
7.119171072,0.9999948415195579,86.21391780668863
7.160621568,1.0000015730943888,83.69204171575952
7.202072576,1.0000082549428373,81.17283289110507
7.243523072,1.0000149037533148,78.65614442885754
7.28497408,1.0000214982097548,76.1418816814442
7.326425088,1.0000278568884828,73.62990054188595
7.367875584,1.0000340864195443,71.1201104466011
7.409326592,1.0000399669342053,68.61236846359628
7.450777088,1.0000454342038418,66.10658403493369
7.492228096,1.0000505425377775,63.60257142912241
7.533678592,1.000055168357382,61.1002701031068
7.5751296,1.0000592835182815,58.5995212386128
7.616580096,1.0000628141444505,56.10021371050152
7.658031104,1.0000657914508249,53.60221824336869
7.699482112,1.0000680808871705,51.10539307590167
7.740932608,1.0000697572631223,48.609650345509905
7.782383616,1.0000707728161062,46.11483937530508
7.823834112,1.0000709933787673,43.62083950107328
7.86528512,1.0000705451818548,41.12749662191406
7.906735616,1.0000694418244944,38.63471276454513
7.948186624,1.0000675730023192,36.14234476910231
7.98963712,1.0000650513527674,33.650293419663534
8.031088128,1.0000618232558822,31.158379929945486
8.072538624,1.0000580433336435,28.666537585056883
8.113989632,1.0000536374142481,26.17459483850443
8.15544064,1.0000486602298517,23.68242119893219
8.196891136,1.0000431850097244,21.189905468969844
8.238342144,1.000037268751595,18.69692881209544
8.27979264,1.0000309955667317,16.203353059310885
8.321243648,1.0000243645328852,13.70903184840582
8.362694144,1.0000174836667217,11.213886029004279
8.404145152,1.0000102742276298,8.717746828049378
8.445595648,1.0000030984980994,6.22049291703654
8.487046656,0.9999958052126929,3.7220367491367763
8.528497664,0.9999885446612943,1.2221900642971837
8.56994816,0.9999814485919745,-1.279140640970971
8.611398656,0.9999745318359534,-3.782046039638306
8.652850176,0.9999678246249702,-6.286699578117233
8.694300672,0.9999614714613151,-8.79319354853504
8.735751168,0.9999555173182774,-11.301657615888773
8.777201664,0.9999500509736409,-13.81221867204154
8.818653184,0.9999450398888389,-16.324983747406925
8.86010368,0.9999407356436169,-18.840070001385612
8.901554176,0.9999369758245367,-21.35761513242304
8.943004672,0.9999339632195136,-23.87767757715691
8.984456192,0.9999315439738448,-26.40043743242932
9.025906688,0.9999300340033455,-28.925959120215648
9.067357184,0.9999291862021544,-31.454353208239784
9.108808704,0.9999291785840018,-33.98575670641003
9.1502592,0.9999298938355918,-36.520227430581386
9.191709696,0.999931447550478,-39.05791808801757
9.233160192,0.9999337096342039,-41.598880685940614
9.274611712,0.9999368694225836,-44.14322174233159
9.316062208,0.9999406661497042,-46.69104049529831
9.357512704,0.9999452053866263,-49.242440522814164
9.398964224,0.9999504027737718,-51.79748213309565
9.44041472,0.9999562377335478,-54.35627334093786
9.481865216,0.9999624795905252,-56.91884424506843
9.523315712,0.9999693057036069,-59.48531505849783
9.564767232,0.9999765590683152,-62.05575016644209
9.606217728,0.9999840856363983,-64.63019133536358
9.647668224,0.9999919371041672,-67.20873060515873
9.68911872,0.9999998790799547,-69.79139470866454
9.73057024,1.000008056765953,-72.37826501068848
9.772020736,1.0000161151866094,-74.96938737289642
9.813471232,1.0000241538677048,-77.56478264078815
9.854922752,1.0000320083329886,-80.1645045325403
9.896373248,1.0000396465670764,-82.76860986827232
9.937823744,1.0000468847855855,-85.3770799279419
9.97927424,1.0000536715261885,-87.98997752793217
10.02072576,1.0000601116008176,-90.60730738979079
10.062176256,1.0000658645844391,-93.22908900320563
10.103626752,1.0000709898258122,-95.85530615360874
10.145077248,1.0000754825407694,-98.48599377527006
10.186528768,1.0000792537035086,-101.12113658789691
10.227979264,1.0000822119522201,-103.76072045112326
10.26942976,1.0000843091376344,-106.40474871131345
10.31088128,1.0000855524774723,-109.05318502493716
10.352331776,1.0000859240638391,-111.7060138510139
10.393782272,1.0000854142466746,-114.36319354489022
10.435232768,1.0000840311186128,-117.02471403207944
10.476684288,1.0000817982349408,-119.69051219612882
10.518134784,1.000078698110329,-122.36055378078441
10.55958528,1.0000747581986804,-125.03479075446339
10.601035776,1.000069994649947,-127.71315017635672
10.642487296,1.0000645030673272,-130.395583418133
10.683937792,1.000058370875685,-133.08201613490994
10.725388288,1.0000516140832543,-135.77239555983772
10.766839808,1.000044258843506,-138.46660456586528
10.808290304,1.0000364078341686,-141.16458657970637
10.8497408,1.0000281713483608,-143.86626512342042
10.891191296,1.0000196062266722,-146.5715384910853
10.932642816,1.0000108977749804,-149.2803030512296
10.974093312,1.000001957575891,-151.99247578408784
11.015543808,0.9999930637177473,-154.70792840404005
11.056995328,0.9999840883120463,-157.4265616423523
11.098445824,0.9999754118157579,-160.14826564860456
11.13989632,0.9999668659006686,-162.87291733097487
11.181346816,0.9999587100385404,-165.6003990697212
11.222798336,0.999950933164868,-168.3305815671314
11.264248832,0.9999437813203188,-171.0633364272919
11.305699328,0.9999371242574073,-173.79852180301847
11.347149824,0.9999311586428676,-176.53602895278658
11.388601344,0.9999259409313183,-179.27568203495005
11.43005184,0.999921534938092,177.98264104831858
11.471502336,0.999917953593176,175.2390864182757
11.512953856,0.9999151965842387,172.4938273347363
11.554404352,0.9999134236736107,169.74696767990193
11.595854848,0.9999125798038151,166.99871007038834
11.637305344,0.9999126748840511,164.24917806092577
11.678756864,0.999913793505751,161.49854440742774
11.72020736,0.9999157879588444,158.74697007635595
11.761657856,0.9999188050707021,155.9946011729953
11.803108352,0.9999226603217536,153.24161692468675
11.844559872,0.9999273728625668,150.4881836110776
11.886010368,0.9999328728730397,147.73445125538254
11.927460864,0.999939246705465,144.98059427518544
11.968912384,0.999946264595955,142.2267996947012
12.01036288,0.9999540202807395,139.47319562009199
12.051813376,0.9999622449762008,136.71998872071364
12.093263872,0.999970924529533,133.96732754776272
12.134715392,0.9999799944783764,131.21536488105104
12.176165888,0.9999893789409805,128.46429742669855
12.217616384,0.9999988668167968,125.7142790695599
12.25906688,1.0000085586277832,122.96547646038522
12.3005184,1.0000181559905326,120.21804926192165
12.341968896,1.0000275957495781,117.47216408976757
12.383419392,1.0000368912177273,114.72797748795568
12.424870912,1.000045888899027,111.98565258824097
12.466321408,1.0000543829980604,109.24534668960047
12.507771904,1.0000625026421919,106.50721543734863
12.5492224,1.0000698646742474,103.77140871492642
12.59067392,1.0000766715163694,101.03807239403609
12.632124416,1.0000826560353162,98.30735630650094
12.673574912,1.0000879385811814,95.579399249728
12.715025408,1.0000922981367346,92.85434501882773
12.756476928,1.0000956502051042,90.13231989509484
12.797927424,1.0000981803564875,87.41346985634846
12.83937792,1.00009965908393,84.69788616071025
12.88082944,1.0001001237476834,81.98573911668973
12.922279936,1.0000996457743965,79.2771291778009
12.963730432,1.0000980480327128,76.57214695093263
13.005180928,1.00009554273914,73.87092250997704
13.046632448,1.000092073726606,71.17353346915834
13.088082944,1.0000875790025991,68.48012007989065
13.12953344,1.0000822274318186,65.79074228341337
13.17098496,1.000076084494816,63.10548655644527
13.212435456,1.0000690950016737,60.42443325739939
13.253885952,1.0000614369538743,57.7476702071311
13.295336448,1.0000531224232974,55.07526699425274
13.336787968,1.0000443431320125,52.40727153101285
13.378238464,1.0000350214161617,49.743745485548075
13.41968896,1.000025385825705,47.08474907625172
13.461139456,1.0000154874868517,44.43030327369746
13.502590976,1.0000054559984177,41.78049111927711
13.544041472,0.9999953078678008,39.13530383573325
13.585491968,0.9999853680467987,36.494802809725165
13.626943488,0.9999754392783642,33.85897343647166
13.668393984,0.9999658651840633,31.227843733547036
13.70984448,0.999956567209178,28.601457217879688
13.751294976,0.9999477621580911,25.979761036344037
13.792746496,0.9999395592808651,23.36281304351843
13.834196992,0.9999319897983596,20.750553249476848
13.875647488,0.999925168330406,18.142993701384132
13.917097984,0.999919061914493,15.540114199858415
13.958549504,0.999913860685181,12.941902968250032
14.0,0.9999095200860768,10.348315403504314
