freq,mag,phase
6.0,1.0002389106518166,-75.18316691050289
6.007575552,1.000233594309066,-75.54142666153807
6.015151616,1.0002149631011557,-75.89963393484884
6.022727168,1.000184648035129,-76.25758964950633
6.030303232,1.000143976147661,-76.61518774063245
6.037878784,1.000095493853805,-76.97232384699451
6.045454336,1.000041677355225,-77.32884845684003
6.0530304,0.9999854288305735,-77.68475088683074
6.060605952,0.9999298672098503,-78.04002150128821
6.068182016,0.9998780529508099,-78.39464372336231
6.075757568,0.9998327079915248,-78.74876163652009
6.08333312,0.9997963927643808,-79.10243722983547
6.090909184,0.9997708521401649,-79.45580144494888
6.098484736,0.9997575979330706,-79.80899791131729
6.1060608,0.9997577173880291,-80.16220915436759
6.113636352,0.9997706502803717,-80.51564892639011
6.121211904,0.9997959831787436,-80.86942670523814
6.128787968,0.999832285542666,-81.2237571862355
6.13636352,0.9998778257268695,-81.57870699344349
6.143939584,0.9999297554188703,-81.93441962110761
6.151515136,0.9999854768982899,-82.29098899884609
6.159090688,1.00004191163722,-82.64842466743445
6.166666752,1.0000960736567197,-83.00669966345949
6.174242304,1.0001448233874999,-83.36577253267889
6.181818368,1.0001859080134496,-83.7255719078105
6.18939392,1.0002167674518436,-84.08591628912933
6.196969472,1.0002357084466962,-84.44677447451606
6.204545536,1.000241874231838,-84.8078437710367
6.212121088,1.0002346951278933,-85.16906224152282
6.219697152,1.0002148306847427,-85.53018955051373
6.227272704,1.0001833170878756,-85.89107246215443
6.234848256,1.0001416850028533,-86.2515831395493
6.24242432,1.0000921683846244,-86.61160344759284
6.249999872,1.0000375802602588,-86.9710354207166
6.257575936,0.9999808493569713,-87.32979784480723
6.265151488,0.9999252407229609,-87.6879510618163
6.27272704,0.9998732080850765,-88.04545176498242
6.280303104,0.9998281124936915,-88.40243056308432
6.287878656,0.9997924288138224,-88.75898261115199
6.29545472,0.9997677143932588,-89.11521866130394
6.303030272,0.9997555056350921,-89.47130979569906
6.310605824,0.999756638830693,-89.82743303432292
6.318181888,0.9997708367360982,-90.18377174266266
6.32575744,0.999797246407041,-90.54050194711225
6.333333504,0.9998347794893698,-90.89774394666861
6.340909056,0.9998811744516611,-91.25568447782547
6.348484608,0.9999340138408939,-91.61439125677546
6.356060672,0.9999902660277078,-91.97395378202077
6.363636224,1.00004709906861,-92.33435491684284
6.371212288,1.0001014740292447,-92.69562924666431
6.37878784,1.0001501662870436,-93.05766493077067
6.386363392,1.000190789486556,-93.42046297292339
6.393939456,1.0002208495664002,-93.78383277671132
6.401515008,1.0002390037104953,-94.14762185524486
6.409091072,1.0002441719403927,-94.51166209407523
6.416666624,1.0002359100980107,-94.8758251527083
6.424242176,1.0002148535236695,-95.23987370802621
6.43181824,1.0001822438271493,-95.60367315739857
6.439393792,1.000139490273768,-95.96705003500537
6.446969856,1.0000891052490741,-96.32997581034785
6.454545408,1.0000337499440084,-96.69223525970688
6.46212096,0.9999765709580763,-97.05387944204416
6.469697024,0.9999205227451512,-97.41488782753365
6.477272576,0.9998687104901222,-97.77520231651569
6.48484864,0.9998238233061642,-98.13503854598154
6.492424192,0.9997885154046068,-98.49444304962098
6.499999744,0.9997645534352536,-98.85354607351005
6.507575808,0.9997533649797102,-99.21250575259387
6.51515136,0.9997553657885527,-99.57150068867884
6.522727424,0.9997706633027261,-99.93072053188968
6.530302976,0.999798324539268,-100.29038207361363
6.53787904,0.9998368701398991,-100.6505444068391
6.545454592,0.9998843562963584,-101.0114100044371
6.553030144,0.9999379304807554,-101.37303805503127
6.560606208,0.9999948850352741,-101.73554117343564
6.56818176,1.000052156832545,-102.09892751061307
6.575757824,1.000106642862976,-102.46313523953562
6.583333376,1.0001552245020984,-102.8281719229225
6.590908928,1.0001953607820717,-103.19389137061651
6.598484992,1.0002249516595163,-103.56018475073002
6.606060544,1.0002423552781807,-103.9269366555238
6.613636608,1.0002465133681864,-104.29388754653665
6.62121216,1.0002372843685332,-104.6609122844129
6.628787712,1.000215159715689,-105.0278497030897
6.636363776,1.0001812987350964,-105.39453857744954
6.643939328,1.0001375376160084,-105.7608055257261
6.651515392,1.000086198318925,-106.12652540223183
6.659090944,1.0000302222408153,-106.49161676410166
6.666666496,0.9999724989670603,-106.85609740476838
6.67424256,0.9999162006901025,-107.2198935768211
6.681818112,0.999864278931665,-107.58306270528178
6.689394176,0.9998197154697506,-107.94568100597606
6.696969728,0.9997848815779415,-108.30789361494475
6.70454528,0.9997615965000471,-108.6697909640682
6.712121344,0.9997511606971987,-109.03159830388678
6.719696896,0.9997542391150547,-109.39343970037888
6.72727296,0.9997705906744326,-109.75550702425696
6.734848512,0.9997993779322301,-110.1179849666455
6.742424064,0.999838922779815,-110.48104456400041
6.750000128,0.999887391377202,-110.84478582568512
6.75757568,0.9999417981746517,-111.20932348262312
6.765151744,0.999999414201519,-111.57470415474376
6.772727296,1.0000571334512174,-111.94097676545174
6.780302848,1.0001116385930047,-112.30811741528922
6.787878912,1.0001602299220524,-112.67601640223891
6.795454464,1.0002000436229428,-113.04464895202712
6.803030528,1.000229049861949,-113.41384908177335
6.81060608,1.0002456215304603,-113.78340648249977
6.818181632,1.0002488958682259,-114.15328211924049
6.825757696,1.0002387182238628,-114.5231434383275
6.833333248,1.0002154855270016,-114.89297255898839
6.840909312,1.000180587568822,-115.26243309478039
6.848484864,1.0001358779327285,-115.63148954141892
6.856060416,1.0000837018828912,-115.99999234176244
6.86363648,1.0000269408979714,-116.367881619656
6.871212032,0.999968699302296,-116.73509152177881
6.878788096,0.9999120506822564,-117.10164158223327
6.886363648,0.9998600680240034,-117.46756805777373
6.8939392,0.9998156761373332,-117.8329287420917
6.901515264,0.999781218648486,-118.1978712397035
6.909090816,0.9997585390847896,-118.56253005732073
6.91666688,0.9997490005569903,-118.92710089679765
6.924242432,0.9997529131067482,-119.29168875528667
6.931817984,0.999770312147667,-119.65657966806612
6.939394048,0.9998001379552138,-120.02183577489043
6.9469696,0.999840797719917,-120.38766839115307
6.954545664,0.9998900063678422,-120.75422861996236
6.962121216,0.9999453178967556,-121.12156324269917
6.969696768,1.0000035524548312,-121.48978935316369
6.977272832,1.000061608479799,-121.85889529984695
6.984848384,1.0001164834011305,-122.22882607025865
6.992424448,1.0001649137755986,-122.59959265634765
7.0,1.000204519348995,-122.97104412718582
7.007575552,1.0002330140738278,-123.34303532564059
7.015151616,1.000248935590611,-123.71545217663335
7.022727168,1.000251314045786,-124.08807101480019
7.030303232,1.000240192960267,-124.46072099905132
7.037878784,1.0002159756508961,-124.83326772565837
7.045454336,1.0001800649358445,-125.20552058090054
7.0530304,1.0001343194028756,-125.57728956734996
7.060605952,1.0000812611467174,-125.94854028575554
7.068182016,1.0000237741475635,-126.31909121328731
7.075757568,0.9999649905504401,-126.6889763756022
7.08333312,0.9999079600220725,-127.05822909853852
7.090909184,0.9998559563836278,-127.42678706533826
7.098484736,0.9998116217191234,-127.79485614903263
7.1060608,0.9997775391254778,-128.16246687391356
7.113636352,0.9997554809236369,-128.52978393331574
7.121211904,0.9997466086437606,-128.89701856831581
7.128787968,0.999751458742574,-129.2643081190356
7.13636352,0.9997697426762396,-129.63184011773217
7.143939584,0.9998005564503769,-129.99981837094418
7.151515136,0.9998421627455528,-130.36838554877295
7.159090688,0.999892435915469,-130.7376462336408
7.166666752,0.999948435087681,-131.1077242261119
7.174242304,1.000007383310123,-131.4786876788634
7.181818368,1.0000658702709484,-131.8505102024939
7.18939392,1.0001209266388598,-132.22318405625566
7.196969472,1.00016938406348,-132.59668394491908
7.204545536,1.0002087342863224,-132.9708556407068
7.212121088,1.0002368411935936,-133.3455859234704
7.219697152,1.000252129650009,-133.72069818411103
7.227272704,1.0002538237406495,-134.09602159651112
7.234848256,1.0002416985604532,-134.47137490222514
7.24242432,1.0002165374793166,-134.84656293484605
7.249999872,1.0001795398221887,-135.2214616719318
7.257575936,1.0001328839143557,-135.5958745813519
7.265151488,1.0000789806021317,-135.9697101073563
7.27272704,1.0000207455255707,-136.34287943325734
7.280303104,0.9999613844214091,-136.7153635318566
7.287878656,0.9999040725664512,-137.08717470609824
7.29545472,0.9998518680124339,-137.45832791527198
7.303030272,0.9998076859170564,-137.82895475632193
7.310605824,0.9997738339532911,-138.1991482186217
7.318181888,0.9997523070320891,-138.56902081993996
7.32575744,0.999744136358137,-138.93882163159518
7.333333504,0.9997497651033894,-139.30868245321744
7.340909056,0.999769065038214,-139.6788246048664
7.348484608,0.9998007695559866,-140.04937884780608
7.356060672,0.999843348983991,-140.42053782352767
7.363636224,0.9998944631667083,-140.79241915747522
7.371212288,0.9999513342925511,-141.16513008490355
7.37878784,1.000010902534547,-141.5386797666157
7.386363392,1.0000699367063561,-141.91313929611124
7.393939456,1.0001251913934865,-142.28848777284537
7.401515008,1.0001737506596038,-142.66458256170017
7.409091072,1.0002129510815168,-143.04136359044202
7.416666624,1.00024066569168,-143.41871411034936
7.424242176,1.000255346326334,-143.79642479931667
7.43181824,1.0002562970649729,-144.17432409095375
7.439393792,1.000243369064087,-144.55226734610002
7.446969856,1.0002172515581844,-144.9300300089213
7.454545408,1.0001794032277953,-145.30743377534964
7.46212096,1.00013175877614,-145.68437797073472
7.469697024,1.0000770004008759,-146.06069088092772
7.477272576,1.0000179984340711,-146.43637082876873
7.48484864,0.9999581064034255,-146.81135645406712
7.492424192,0.9999003127752928,-147.18562979290365
7.500000256,0.9998479804930616,-147.55922270518116
7.507575808,0.9998037501247657,-147.93231279859688
7.51515136,0.9997702378916113,-148.30490128169538
7.522727424,0.9997490607363435,-148.6772503892408
7.530302976,0.9997415664878417,-149.04949096143304
7.53787904,0.9997480159768123,-149.42181607283402
7.545454592,0.9997680857502351,-149.79442355537753
7.553030144,0.999800828799432,-150.16743897074494
7.560606208,0.999844339021681,-150.541099541663
7.56818176,0.9998963937264581,-150.91543633802877
7.575757824,0.9999540726008886,-151.29063671835445
7.583333376,1.000014324382407,-151.6666782070462
7.590908928,1.0000737731277753,-152.04365726573965
7.598484992,1.0001294563688687,-152.42147287635808
7.606060544,1.0001780993863165,-152.80008818012087
7.613636608,1.000217189678238,-153.17936790589178
7.62121216,1.0002445750450695,-153.55916250252915
7.628787712,1.0002587309603879,-153.9393759699012
7.636363776,1.000259016814778,-154.31971699817717
7.643939328,1.0002452415845016,-154.70011153814121
7.651515392,1.0002181783058237,-155.08028105827663
7.659090944,1.0001794128642114,-155.4600982569752
7.666666496,1.000130848419218,-155.83942630306228
7.67424256,1.0000752119910568,-156.21817025704397
7.681818112,1.0000155301186837,-156.59617624450473
7.689394176,0.9999549173391835,-156.97347326358243
7.696969728,0.9998967441561959,-157.35007832660182
7.70454528,0.9998441822800923,-157.72604083214313
7.712121344,0.9997999819828062,-158.10141345262775
7.719696896,0.9997665494662368,-158.47634460082935
7.72727296,0.9997459287409901,-158.85098590298318
7.734848512,0.9997389068763738,-159.2255611042862
7.742424064,0.9997460701710508,-159.60020238279066
7.750000128,0.9997670729987839,-159.97510750022698
7.75757568,0.9998007176887156,-160.35045356837827
7.765151744,0.9998452060968862,-160.72643836787958
7.772727296,0.9998981370311784,-161.10311519389967
7.780302848,0.9999565769076082,-161.48063660642057
7.787878912,1.0000175054205427,-161.8590776697111
7.795454464,1.0000775317927062,-162.23837808184956
7.803030528,1.000133464307207,-162.61854426871486
7.81060608,1.0001823912574803,-162.99951228882466
7.818181632,1.0002213700246678,-163.38113919807543
7.825757696,1.0002484613713694,-163.76328339475165
7.833333248,1.000262180209717,-164.14581323981554
7.840909312,1.0002617915648655,-164.52846902902323
7.848484864,1.0002472287483632,-164.91115135695125
7.856060416,1.0002193450137855,-165.2936026109686
7.86363648,1.0001796368556672,-165.67569493436406
7.871212032,1.0001301600034804,-166.0572673906638
7.878788096,1.0000736921095295,-166.43822744192073
7.886363648,1.0000131544691124,-166.8184763189055
7.8939392,0.9999519064560825,-167.19795723348238
7.901515264,0.999893293091392,-167.5767630339263
7.909090816,0.9998403864073888,-167.9548692073341
7.91666688,0.9997961736777718,-168.33240165467487
7.924242432,0.9997628407244927,-168.70950139733228
7.931817984,0.9997425715714287,-169.08630791071167
7.939394048,0.9997360616193744,-169.46302498443006
7.9469696,0.9997439480768225,-169.8398268131629
7.954545664,0.999765708664666,-170.21687691922358
7.962121216,0.9998003063403357,-170.59439802447937
7.969696768,0.999845693460229,-170.97253767396057
7.977272832,0.9998994769404731,-171.35142134343164
7.984848384,0.9999588545589594,-171.7311492998743
7.992424448,1.000020500515054,-172.11173892330422
8.0,1.0000811380091688,-172.49324760792956
8.007575552,1.0001374751134213,-172.87559184323018
8.015151616,1.0001864283132953,-173.25874756034557
8.022727168,1.0002254945776299,-173.64257536683087
8.030303232,1.0002524647954452,-174.0269057060428
8.037878784,1.0002656966790753,-174.4115776060711
8.045454336,1.000264705383624,-174.7964071332512
8.0530304,1.0002494543452398,-175.18120998535278
8.060605952,1.000220643786845,-175.56580779461245
8.068182016,1.0001800992951684,-175.9500050572122
8.075757568,1.0001296300176987,-176.33363788545
8.08333312,1.0000722735517749,-176.71666198413024
8.090909184,1.0000109719781034,-177.09897266190947
8.098484736,0.9999489998387534,-177.48050316186973
8.1060608,0.9998899347300624,-177.86130528178353
8.113636352,0.9998367143249748,-178.24143650363717
8.121211904,0.9997923025630869,-178.62094817878872
8.128787968,0.9997592240461673,-179.000036445346
8.13636352,0.9997390922632192,-179.3788340400464
8.143939584,0.999733160214459,-179.75754597421786
8.151515136,0.9997416411648086,179.86370225041227
8.159090688,0.9997642964327946,179.4846273454661
8.166666752,0.9997996634226306,179.10511163261117
8.174242304,0.9998460120795499,178.72494832020925
8.181818368,0.9999007945664563,178.3440878674326
8.18939392,0.999960965001181,177.96235803263158
8.196969472,1.0000233179189186,177.5797466944465
8.204545536,1.0000846707542008,177.19621710618753
8.212121088,1.0001414479113246,176.8118420587084
8.219697152,1.0001906466876007,176.42667854111446
8.227272704,1.0002296197384979,176.04085609515246
8.234848256,1.0002563495070909,175.65451746020852
8.24242432,1.0002692997708182,175.26783331924003
8.249999872,1.0002677378444722,174.88101554526375
8.257575936,1.0002516946714137,174.49425638967014
8.265151488,1.000222156061619,174.10772986551086
8.27272704,1.0001806067602723,173.72158690189053
8.280303104,1.000129300362743,173.3360075360018
8.287878656,1.0000710774172483,172.9511122741117
8.29545472,1.0000088491280412,172.56694194193136
8.303030272,0.9999462806813939,172.18354428484457
8.310605824,0.999886635191057,171.8009072252773
8.318181888,0.9998329215377194,171.41896163062708
8.32575744,0.999788317591414,171.03761499535184
8.333333504,0.9997552939954522,170.6567043689785
8.340909056,0.9997354978396926,170.27610864326695
8.348484608,0.999729963838094,169.8956131237061
8.356060672,0.9997390647368367,169.5150157911926
8.363636224,0.9997624230516092,169.13415029507283
8.371212288,0.9997986791622657,168.75282283503515
8.37878784,0.9998459290321788,168.37086229108158
8.386363392,0.9999016481617397,167.9881523826507
8.393939456,0.9999626060763412,167.6045964926895
8.401515008,1.0000259375133733,167.2201513263961
8.409091072,1.0000878157414526,166.83479965772943
8.416666624,1.0001450767271862,166.4485956547521
8.424242176,1.0001946672679571,166.06159906298197
8.43181824,1.0002337985034382,165.67392266694716
8.439393792,1.000260484462786,165.28578287455358
8.446969856,1.000272952800271,164.89728541374205
8.454545408,1.0002708569576926,164.5086743925138
8.46212096,1.0002541821488182,164.12013939418466
8.469697024,1.000223828683097,163.73182993207908
8.477272576,1.0001813114893585,163.34395513920936
8.48484864,1.000129025317792,162.95664746328413
8.492424192,1.0000697843432742,162.5700340988009
8.499999744,1.0000068640502318,162.18418653127014
8.507575808,0.9999434971796234,161.7991059253565
8.51515136,0.9998830726369069,161.41481432862983
8.522727424,0.9998291009326891,161.03121181453585
8.530302976,0.9997842431136142,160.64823669422015
8.53787904,0.9997511956563838,160.2657191449442
8.545454592,0.999731507230313,159.88349694017796
8.553030144,0.999726390988364,159.5013759614424
8.560606208,0.9997363375302896,159.11918095309883
8.56818176,0.9997603872183117,158.73669959253974
8.575757824,0.99979750650164,158.35376192082228
8.583333376,0.9998456828275107,157.97016443502943
8.59090944,0.9999022229352361,157.58583545735544
8.598484992,0.9999643208016182,157.20063991452176
8.606060544,1.0000283471382738,156.81454838235436
8.613636096,1.0000910308359803,156.4275658788357
8.621211648,1.0001487954477697,156.03969748097478
8.628788224,1.0001987057640784,155.65106785074636
8.636363776,1.0002379396649546,155.26177506261953
8.643939328,1.0002643719094106,154.87197406459345
8.65151488,1.0002767281606633,154.48188703266837
8.659090432,1.0002741117578602,154.0916450628201
8.666667008,1.0002568206291493,153.70150108157057
8.67424256,1.0002254820722636,153.31163366447436
8.681818112,1.000182089518178,152.922194146549
8.689393664,1.0001290228008348,152.53334513826496
8.696969216,1.0000686778235364,152.14520589487333
8.704545792,1.0000048015399015,151.75785002430877
8.712121344,0.9999405841210451,151.3712903816058
8.719696896,0.9998795542887128,150.98554430361264
8.727272448,0.9998250977850575,150.6004952320371
8.734848,0.9997800841971995,150.21608219476443
8.742424576,0.999746893681034,149.83213670848772
8.750000128,0.9997274598189871,149.44849810483825
8.75757568,0.999722795350961,149.06496458343634
8.765151232,0.9997331589216419,148.6813503269062
8.772726784,0.999758023929609,148.29744706143754
8.78030336,0.9997960210568672,147.9130804238812
8.787878912,0.9998451333935123,147.52806346270037
8.795454464,0.9999027254650369,147.1422815194614
8.803030016,0.999965646473971,146.7556719083695
8.810605568,1.000030528033977,146.3681451413417
8.818182144,1.0000940185830924,145.97970008049444
8.825757696,1.0001524427218573,145.59037535054128
8.833333248,1.0002026719558044,145.20028848724132
8.8409088,1.0002420951833026,144.8095583747631
8.848484352,1.0002686227398598,144.4183233676643
8.856060928,1.0002805557142993,144.0267923214628
8.86363648,1.0002774234963163,143.63515962575462
8.871212032,1.00025938255995,143.24358595558115
8.878787584,1.0002273671998314,142.8523423768555
8.886363136,1.0001830103320517,142.4615271853153
8.893939712,1.0001288835043438,142.07134623127888
8.901515264,1.0000676848157808,141.68189374868422
8.909090816,1.0000027711714141,141.29321776422404
8.916666368,0.9999377880244751,140.90538202883013
8.92424192,0.9998760937382261,140.51835568192465
8.931818496,0.9998210830825129,140.13207436013073
8.939394048,0.9997757395471382,139.74640852400682
8.9469696,0.9997423705285957,139.36121966222515
8.954545152,0.999723208292721,138.97636140347586
8.962120704,0.9997188613759003,138.59160988022361
8.96969728,0.9997298208290385,138.20677200524938
8.977272832,0.9997554307034042,137.8216372413968
8.984848384,0.9997942858076445,137.4360420841777
8.992423936,0.9998444642871257,137.04981240832254
8.999999488,0.9999030958660797,136.66281387477557
9.007576064,0.9999670889425613,136.27492971430635
9.015151616,1.0000329391811755,135.88617387746555
9.022727168,1.000097164799485,135.49646527055182
9.03030272,1.000156201399663,135.10589342054132
