freq,mag,phase
6.0,0.9992793369049142,136.54097420266007
6.002284544,0.9991355736383822,136.3942542342382
6.004568576,0.9990464593661543,136.24925347420157
6.00685312,0.9990177151797135,136.10514242840156
6.009137664,0.9990510459701589,135.96097761632063
6.011422208,0.9991444396352303,135.81595756970148
6.01370624,0.9992920550158395,135.66922483335523
6.015990784,0.999484471020269,135.5200059926706
6.018275328,0.9997094958222628,135.36780929097156
6.020559872,0.9999531885075975,135.21220935021802
6.022843904,1.0001996406359452,135.05310373562608
6.025128448,1.000433772196137,134.89052251039948
6.027412992,1.0006404437257697,134.72476310716058
6.029697536,1.0008068806570902,134.5563303120385
6.031981568,1.0009223286573588,134.38589180727448
6.034266112,1.0009796684500207,134.2142015101927
6.036550656,1.0009752086364267,134.0421413891088
6.0388352,1.0009092641283743,133.87065321631533
6.041119232,1.000785885453684,133.70053475552027
6.043403776,1.0006129634918708,133.53258112820401
6.04568832,1.0004012115847638,133.36744185700783
6.047972352,1.000164186161607,133.20558692347768
6.050256896,0.9999164312453404,133.04725183604887
6.05254144,0.9996741267399212,132.8925090882496
6.054825984,0.9994523761712403,132.74116333813524
6.057110016,0.9992651613836451,132.59283900168967
6.05939456,0.9991242738530047,132.4468840815559
6.061679104,0.9990387895814145,132.30261587690745
6.063963648,0.9990141790151896,132.15918101388627
6.06624768,0.9990519976158673,132.0156997582516
6.068532224,0.9991498037578598,131.87122224557882
6.070816768,0.9993012079130511,131.72499005695877
6.073101312,0.9994971388430818,131.5762347066759
6.075385344,0.9997248149064125,131.4244286423324
6.077669888,0.9999699627745525,131.26921791631338
6.079954432,1.0002171385034975,131.11043878088643
6.082238976,1.0004506063997898,130.94822379615673
6.084523008,1.0006558330713906,130.78283307963173
6.086807552,1.0008194978504035,130.61480979028238
6.089092096,1.0009316359426514,130.44478265216625
6.091376128,1.000984936785928,130.27361326797444
6.093660672,1.0009763246760512,130.10211858259225
6.095945216,1.0009057833366275,129.93123858053696
6.09822976,1.0007782424020537,129.76181942752305
6.100513792,1.0006015761761236,129.59459022164592
6.102798336,1.0003867212974615,129.43024137451224
6.10508288,1.0001475514769156,129.2692177131377
6.107367424,0.9998988972089139,129.11172773193906
6.109651456,0.9996565973373989,128.95784076306668
6.111936,0.9994359271581437,128.80735067667743
6.114220544,0.9992507590539387,128.65984668395146
6.116505088,0.9991130392260346,128.51469829290232
6.11878912,0.9990313044405749,128.3711796875302
6.121073664,0.9990110130149813,128.22841835609552
6.123358208,0.9990531820005129,128.08552961875725
6.12564224,0.9991553875981902,127.94160396469393
6.127926784,0.9993109947929993,127.79586506381412
6.130211328,0.9995102007288865,127.64755061054346
6.132495872,0.9997405770341221,127.49611882648004
6.134779904,0.9999872523671408,127.34125759396576
6.137064448,1.0002349922538836,127.18284503545787
6.139348992,1.0004677980374026,127.02097240465028
6.141633536,1.0006711660831,126.85593722955429
6.143917568,1.000832244379005,126.68829441389997
6.146202112,1.0009408495381622,126.51871768002621
6.148486656,1.000990213090432,126.34802816994461
6.1507712,1.0009769436091782,126.17711713662962
6.153055232,1.0009021196666013,126.00683978121992
6.155339776,1.0007702523426794,125.83808820363538
6.15762432,1.0005896862523351,125.67159326582973
6.159908864,1.0003718962666859,125.50803832230187
6.162192896,1.000130562937393,125.347832216426
6.16447744,0.9998809177023236,125.1911817665858
6.166761984,0.9996386394602516,125.03817633059396
6.169046016,0.9994191606066234,124.88852480620184
6.17133056,0.9992364265826522,124.74179861746794
6.173615104,0.999101773612955,124.59745486870659
6.175899648,0.9990239722530581,124.45464266946638
6.17818368,0.9990080223438195,124.31257379061736
6.180468224,0.9990547734193319,124.17029485764328
6.182752768,0.9991614127059328,124.02690658937233
6.185037312,0.9993210948045076,123.88161667816826
6.187321344,0.9995238307588484,123.7337105400219
6.189605888,0.9997566196739474,123.5826911507983
6.191890432,1.0000049495717274,123.42816878412353
6.194174976,1.0002529812006362,123.2700639464689
6.196459008,1.0004852246156541,123.10852782853149
6.198743552,1.000686800586131,122.94384449957501
6.201028096,1.0008450459871792,122.7765894496851
6.20331264,1.0009500395067952,122.60745087451521
6.205596672,1.000995152272618,122.43721477485725
6.207881216,1.000977214046575,122.2668497590577
6.21016576,1.0008979265358964,122.09718818210705
6.212449792,1.00076178523534,121.92907864643745
6.214734336,1.0005775577104807,121.76337658376221
6.21701888,1.0003567146439754,121.60058674894724
6.219303424,1.0001132022097612,121.44118855932476
6.221587456,0.9998625098941495,121.28539092401407
6.223872,0.9996203949289378,121.1332231462748
6.226156544,0.9994023326735204,120.98439138072582
6.228441088,0.9992219450719504,120.83851298096936
6.23072512,0.9990906051594138,120.6949140881002
6.233009664,0.9990169406033906,120.55282915210313
6.235294208,0.9990052754390016,120.41140056611383
6.237578752,0.9990567118938651,120.26971951198753
6.239862784,0.9991677842206103,120.1268535243566
6.242147328,0.9993315502671627,119.98201302257664
6.244431872,0.9995377849295084,119.83451614729451
6.246716416,0.9997732185804914,119.68384671236758
6.249000448,1.0000230277430555,119.52963936959006
6.251284992,1.0002715445455577,119.37185764004785
6.253569536,1.000502808875268,119.21064697021971
6.255853568,1.0007024846809114,119.04628303045605
6.258138112,1.0008578665503125,118.87940298532229
6.260422656,1.0009590616783013,118.71067840823588
6.2627072,1.0009998672837879,118.54092591209077
6.264991232,1.0009774596555712,118.37108208705486
6.267275776,1.0008933391265027,118.20202980605917
6.26956032,1.0007527623488557,118.0346125140598
6.271844864,1.0005646272776012,117.86961667473733
6.274128896,1.000340879800553,117.7075833579726
6.27641344,1.0000953948301314,117.54903466091474
6.278697984,0.9998437145225539,117.3940810730849
6.280982528,0.9996019333834522,117.24272672388491
6.28326656,0.999385294405361,117.0947613574383
6.285551104,0.999207320740388,116.94967064102308
6.287835648,0.999079493512688,116.80681019457714
6.29011968,0.9990098515520943,116.6654468978185
6.292404224,0.9990028350984244,116.52466024615467
6.294688768,0.9990590069975909,116.38352663981681
6.296973312,0.9991746474449649,116.24117816930405
6.299257344,0.9993426038846034,116.09675302859966
6.301541888,0.999552165626964,115.94965152324919
6.303826432,0.9997901445070528,115.79929884626608
6.306110976,1.0000413322499624,115.64541070841123
6.308395008,1.000290111579444,115.48792254218958
6.310679552,1.0005205122058196,115.3269854210157
6.312964096,1.0007181549630542,115.16296776582007
6.31524864,1.0008705087402106,114.99643818566449
6.317532672,1.000967882732288,114.8281257688159
6.319817216,1.0010041815515003,114.65885076807422
6.32210176,1.0009770744445277,114.48951163144896
6.324386304,1.0008883443584884,114.32105295416756
6.326670336,1.0007432810799068,114.15431847587384
6.32895488,1.0005514306099874,113.9900380073722
6.331239424,1.0003246457341648,113.8287936061661
6.333523456,1.000077152715384,113.67102443136876
6.335808,0.9998246404957748,113.51690292315122
6.338092544,0.9995832037775452,113.36639275116549
6.340377088,0.9993680268954209,113.21921310890366
6.34266112,0.9991927267891296,113.07491594141608
6.344945664,0.9990684899065987,112.93285041730138
6.347230208,0.999003022765616,112.79214459837642
6.349514752,0.9990006945535844,112.65195635059656
6.351798784,0.9990616942369699,112.51140058319932
6.354083328,0.9991819556790091,112.3695081365903
6.356367872,0.9993540915051607,112.22552307644736
6.358652416,0.9995671181482914,112.07876758019414
6.360936448,0.9998074653030686,111.92872984132381
6.363220992,1.000060270357719,111.77516923053076
6.365505536,1.0003091062729372,111.61794488719988
6.36779008,1.0005385532151707,111.4572891323205
6.370074112,1.000734011234347,111.29355849004803
6.372358656,1.0008832648689618,111.12736671485952
6.3746432,1.000976676506528,110.95946372316111
6.376927232,1.0010083627414486,110.79063294952827
6.379211776,1.000976522471361,110.62182426586739
6.38149632,1.000882893102441,110.4539447242048
6.383780864,1.0007335574747482,110.28786716840682
6.386064896,1.0005377481832434,110.1242852180697
6.38834944,1.0003078515634238,109.96381864968824
6.390633984,1.0000585402025044,109.80684370854758
6.392918528,0.9998053558439701,109.65354098283653
6.39520256,0.9995642460704152,109.50385320954771
6.397487104,0.9993507472293189,109.35749688675212
6.399771648,0.9991781421909112,109.21397187956845
6.402056192,0.999057449383897,109.07261283204868
6.404340224,0.9989964702929816,108.93255978014135
6.406624768,0.9989989698107259,108.79301473344638
6.408909312,0.999064737786691,108.65297439730337
6.411193856,0.9991897348074534,108.51154680612093
6.413477888,0.9993660611630392,108.36796902629682
6.415762432,0.9995825600128336,108.22152798427595
6.418046976,0.9998254051197337,108.07181644336596
6.420331008,1.0000793450508283,107.91849618440877
6.422615552,1.0003284022817156,107.76154678340897
6.424900096,1.0005567942742783,107.60112779881385
6.42718464,1.0007499667218553,107.43771792590778
6.429468672,1.0008957928983295,107.2718459085401
6.431753216,1.0009852785121525,107.10428490230754
6.43403776,1.0010122431546824,106.93590259214834
6.436322304,1.0009754918386176,106.76762070877446
6.438606336,1.0008770489294114,106.60034646207124
6.44089088,1.0007231408395312,106.43488819771483
6.443175424,1.0005235598766304,106.27202376352656
6.445459968,1.0002906611525775,106.11231437523982
6.447744,1.0000394222105444,105.95613128476793
6.450028544,0.9997854721746844,105.80364927100976
6.452313088,0.999545009335912,105.65476868245075
6.45459712,0.9993332087006788,105.50919451526366
6.456881664,0.9991634596579851,105.36644763434053
6.459166208,0.9990465831471376,105.22579433921561
6.461450752,0.9989901339942687,105.08641349327786
6.463734784,0.9989974370234883,104.94740944440979
6.466019328,0.9990682253419855,104.80785131868603
6.468303872,0.9991978777549541,104.66689919779064
6.470588416,0.999378448335482,104.52369235526132
6.472872448,0.999598411844081,104.37759089359908
6.475156992,0.9998436109370342,104.22811887710377
6.477441536,1.000098944979867,104.07504630448373
6.47972608,1.0003479956903245,103.91834201257933
6.482010112,1.000575104523307,103.75818067708335
6.484294656,1.0007659848991066,103.5950273359506
6.4865792,1.0009084270148363,103.42945791017114
6.488863744,1.000993493628972,103.26228084877971
6.491147776,1.0010159324405572,103.09432606531831
6.49343232,1.0009741299001278,102.92654611194439
6.495716864,1.0008707166715327,102.75981043090118
6.498000896,1.0007123821551773,102.59501268718286
6.50028544,1.0005088062343168,102.4328451781404
6.502569984,1.0002731472631878,102.27389902902812
6.504854528,1.0000198823656747,102.11850514281561
6.50713856,0.9997653986612838,101.96681029027937
6.509423104,0.9995256677246713,101.81872859645982
6.511707648,0.9993156816368585,101.67395467375863
6.513992192,0.9991489187713586,101.53191840770506
6.516276224,0.999036048664508,101.39193583188471
6.518560768,0.998983949879177,101.25321589623765
6.520845312,0.9989963040811163,101.11477752876038
6.523129856,0.9990720892963492,100.97572709750825
6.525413888,0.9992066897652658,100.83515713438655
6.527698432,0.9993913955735184,100.69230363895996
6.529982976,0.9996147742784728,100.54648840249361
6.53226752,0.9998624728566323,100.39728642036494
6.534551552,1.00011893666414,100.24443190296938
6.536836096,1.0003678345998432,100.08792552927079
6.53912064,1.000593626799921,99.92799230556865
6.541404672,1.0007819465287398,99.7650865889088
6.543689216,1.0009209464858952,99.5998165430095
6.54597376,1.001001611651828,99.432985851731
6.548258304,1.0010191846823862,99.26545881326253
6.550542336,1.0009723201374745,99.09814949795867
6.55282688,1.000863960515148,98.93197578058063
6.555111424,1.000701012789259,98.76783273808957
6.557395968,1.0004936786924246,98.60633905905257
6.55968,1.0002549824483438,98.44811700093676
6.561964544,1.0000000178126465,98.29349632932255
6.564249088,0.9997449738950152,98.14257732123026
6.566533632,0.9995059251435151,97.99527892387306
6.568817664,0.9992980039524852,97.85125159733737
6.571102208,0.9991343528018176,97.70996809466754
6.573386752,0.9990253876757365,97.570674055482
6.575671296,0.9989781138646088,97.43254140477396
6.577955328,0.9989955204585215,97.29465872057322
6.580239872,0.9990763897557308,97.15607175591234
6.582524416,0.9992157913450861,97.01589474035677
6.584808448,0.9994048595743259,96.87335052125277
6.587092992,0.999631542127317,96.72781991019953
6.589377536,0.9998816852060013,96.5788266306982
6.59166208,1.000139163527045,96.42617642978354
6.593946112,1.000387943775921,96.26987519926624
6.596230656,1.0006123128841256,96.11014752448645
6.5985152,1.0007979135738179,95.94747595521855
6.600799744,1.0009331807058603,95.78247018753774
6.603083776,1.0010095727963366,95.6159911049219
6.60536832,1.0010221597442504,95.4488649822006
6.607652864,1.0009700991675283,95.282030565257
6.609937408,1.0008568077410132,95.11640377941936
6.61222144,1.000689208115727,94.95285354680536
6.614505984,1.0004780366709989,94.79203629764557
6.616790528,1.0002363932820726,94.63455848454115
6.61907456,0.9999797920213683,94.48069554424393
6.621359104,0.9997242855177758,94.33053895224877
6.623643648,0.9994860831331541,94.18403575411442
6.625928192,0.9992802250261209,94.0407574538504
6.628212224,0.9991199191134272,93.90017744768461
6.630496768,0.9990151282221379,93.76151591160112
6.632781312,0.9989726435922629,93.62397542778447
6.635065856,0.9989951680562149,93.4866063612868
6.637349888,0.9990812189903736,93.34847210422511
6.639634432,0.9992254519097601,93.20867412923491
6.641918976,0.9994188352316625,93.06641396704879
6.64420352,0.9996488015698766,92.92111210459916
6.646487552,0.9999011676827081,92.77232699763515
6.648772096,1.0001598228469128,92.61984490698312
6.65105664,1.0004083698863964,92.46370504328347
6.653341184,1.0006310558509837,92.30416538664775
6.655625216,1.000814034050931,92.14171132945353
6.65790976,1.0009455583907978,91.9769859787272
6.660194304,1.001017251441407,91.81079447937528
6.662478336,1.0010248029780073,91.64404669756638
6.66476288,1.000967549844643,91.4776897112884
6.667047424,1.000849014212304,91.3125921913836
6.669331968,1.0006769566631821,91.14963747611066
6.671616,1.0004618778125185,90.98949886151449
6.673900544,1.0002174580573269,90.83273708695516
6.676185088,0.9999591776076671,90.67959637987497
6.678469632,0.9997033567859027,90.53021506384269
6.680753664,0.9994660934844674,90.38447943190037
6.683038208,0.9992624784885058,90.24192178702735
6.685322752,0.9991055470713928,90.1020159207606
6.687607296,0.999004978233821,89.96401899456035
6.689891328,0.9989674306965867,89.82704220015401
6.692175872,0.9989952495910928,89.69014736904674
6.694460416,0.9990865247990417,89.5524206778669
6.69674496,0.9992356853458372,89.41295800292099
6.699028992,0.9994333563592881,89.27097709149758
6.701313536,0.9996666163056721,89.12588944271415
6.70359808,0.9999212278324706,88.97728859385221
6.705882112,1.00018082510317,88.82495101148855
6.708166656,1.0004289660185395,88.66896782539335
6.7104512,1.000649908341586,88.50957634633986
6.712735744,1.0008299897477315,88.34730308352755
6.715019776,1.0009575733692098,88.18281746629093
6.71730432,1.0010247276167081,88.01694652659873
6.719588864,1.0010270199516027,87.85055996985761
6.721873408,1.000964405383984,87.68464687662647
6.72415744,1.000840895457699,87.5200860850404
6.726441984,1.00066412491344,87.3577069604273
6.728726528,1.0004451153656155,87.19824034040657
6.731011072,1.0001979197244018,87.04215414745407
6.733295104,0.9999380440011976,86.8897559960917
6.735579648,0.9996820189423816,86.74112692107775
6.737864192,0.9994458424971178,86.59612135109558
6.740148736,0.9992446507886186,86.45427527138297
6.742432768,0.999091126735297,86.31505797093956
6.744717312,0.9989950378012546,86.17766052675475
6.747001856,0.998962477691708,86.04122160581687
6.749285888,0.9989955952465593,85.90480936163421
6.751570432,0.9990922624721518,85.76745549033706
6.753854976,0.9992462799246913,85.628319532242
6.75613952,0.9994481164283698,85.4865664235997
6.758423552,0.9996848233067095,85.34168010349258
6.760708096,0.999941597700864,85.19320707108255
6.76299264,1.0002020267106992,85.04102142839024
6.765277184,1.0004496762553508,84.88513968822436
6.767561216,1.0006689794763257,84.7258902005962
6.76984576,1.0008459652356587,84.56378754444476
6.772130304,1.0009695234275706,84.39953389593272
6.774414848,1.0010318695198488,84.23393167803366
6.77669888,1.0010289036216828,84.06790305806152
6.778983424,1.0009609793026437,83.90241696758771
6.781267968,1.0008321409653436,83.73838449898062
6.783552,1.000650703313794,83.57659017435343
6.785836544,1.000428032034267,83.41775314261454
6.788121088,1.0001780273155907,83.26235455415609
6.790405632,0.9999166799394757,83.1106803060618
6.792689664,0.9996604829293102,82.96277421140894
6.794974208,0.9994255062051463,82.8184747236695
6.797258752,0.9992267453154527,82.67732252063931
6.799543296,0.9990768507198367,82.53874765903421
6.801827328,0.998985295781562,82.40194258517657
6.804111872,0.9989578111346733,82.26601647159413
6.806396416,0.9989962959016639,82.13003577610849
6.80868096,0.9990983905997353,81.99305230641055
6.810964992,0.9992574667744999,81.85417927367169
6.813249536,0.9994636022802789,81.71267547544213
6.81553408,0.9997036121176254,81.5679443375798
6.817818624,0.9999623577990131,81.41959634175758
6.820102656,1.00022358439665,81.26747882889366
6.8223872,1.0004706637352692,81.11171421030238
6.824671744,1.000688014529454,80.9525766253993
6.826955776,1.000861798488913,80.79063719165143
6.82924032,1.0009812421017958,80.6265516093639
6.831524864,1.001038673744811,80.46124661900171
6.833809408,1.0010303817282429,80.29555036158982
6.83609344,1.000956919134799,80.13048129536533
6.838377984,1.0008228649441229,79.96694209867276
6.840662528,1.000636759809015,79.80571561186775
6.842947072,1.0004103221367133,79.64749707533701
6.845231104,1.0001577430068767,79.49276733775287
6.847515648,0.9998948959910833,79.34179387722827
6.849800192,0.9996385609464524,79.19458922605368
6.852084736,0.9994049767862925,79.0509975516193
6.854368768,0.9992088662868581,78.91054539389096
6.856653312,0.9990627718036376,78.77258052869405
6.858937856,0.9989757433145781,78.6363418276109
6.8612224,0.9989536263939965,78.5008981598091
6.863506432,0.9989975962866935,78.3653435401585
6.865790976,0.9991049927633536,78.22869716197921
6.86807552,0.9992690970895192,78.09006610645004
6.870359552,0.9994795365354695,77.94874321297509
6.872644096,0.9997227804639908,77.80414462240822
6.87492864,0.9999835451702815,77.65588101474592
6.877213184,1.0002454698608796,77.50385476914349
6.879497216,1.000491872627088,77.34815765918026
6.88178176,1.0007070748955247,77.18910945933743
6.884066304,1.000877781391831,77.02728045205501
6.886350848,1.0009927879826375,76.86339791311919
6.88863488,1.0010451931230413,76.69830559543756
6.890919424,1.0010314974114827,76.53295486232273
6.893203968,1.0009525480617552,76.36830840765387
6.895488512,1.0008132847629838,76.20521714343829
6.897772544,1.0006225391057484,76.04456232440573
6.900057088,1.0003921731503518,75.88693696584296
6.902341632,1.0001369087143697,75.73286992262629
6.904626176,0.9998727997764332,75.58256956859945
6.906910208,0.9996165955061089,75.43608181254531
6.909194752,0.9993844421371283,75.29316456815323
6.911479296,0.9991909915191367,75.1533594154261
6.913763328,0.9990487840075236,75.01599924955336
6.916047872,0.9989665822429934,74.88029341065702
6.918332416,0.9989496985558078,74.74533885053914
6.92061696,0.9989992746137731,74.61014372233402
6.922900992,0.9991122066447292,74.47379749306532
6.925185536,0.9992812894946386,74.33541076029378
6.92747008,0.9994958689574557,74.19424411238968
6.929754624,0.9997423638185406,74.04974485461553
