freq,mag,phase
6.0,1.0002048190987671,22.038576246817012
6.00961536,0.9999631487968049,21.78100377192418
6.01923072,0.999723350951215,21.526530324093752
6.02884608,0.9994978427715575,21.27514120081591
6.03846144,0.9992983752995064,21.026523485136885
6.0480768,0.9991355078911991,20.780305183241722
6.05769216,0.9990176050256999,20.535925808477245
6.06730752,0.998950968270456,20.292761565880767
6.07692288,0.9989390572966858,20.05004685249372
6.08653824,0.9989825816484752,19.80716995057651
6.0961536,0.9990792566841113,19.563343580153628
6.105769472,0.9992241725756724,19.31791965773899
6.115384832,0.9994096892729256,19.070293234978152
6.125000192,0.999626232967857,18.819971720753617
6.134615552,0.999862458218326,18.566671001871242
6.144230912,1.0001061155649087,18.310215578154317
6.153846272,1.0003444521675382,18.05053758072432
6.163461632,1.000565131023927,17.787858585525917
6.173076992,1.0007566714277654,17.522405547444055
6.182692352,1.0009090704169585,17.2547345545773
6.192307712,1.0010142738822099,16.985309745328344
6.201923072,1.0010668636934683,16.714820794224412
6.211538432,1.0010641454188058,16.444005713284504
6.221153792,1.0010061738597937,16.173529904568404
6.230769152,1.000895771753477,15.904162647682888
6.240384512,1.0007387473541987,15.636555769685204
6.249999872,1.0005432414227255,15.371204236436892
6.259615232,1.000319399944799,15.108588075540258
6.269230592,1.0000788678094168,14.849009790969617
6.278845952,0.9998339845995711,14.592605580094496
6.288461312,0.9995976306202274,14.33935077778935
6.298076672,0.9993821394519392,14.089077446734331
6.307692544,0.9991988089867281,13.841403422478056
6.317307904,0.9990571085530587,13.59585784259844
6.326923264,0.9989645728277612,13.351830483399585
6.336538624,0.9989259738721996,13.108684618672157
6.346153984,0.9989435377921192,12.865637089528414
6.355769344,0.9990163139944398,12.6220024847602
6.365384704,0.9991404599925355,12.377049862553548
6.375000064,0.9993097126610891,12.130136329205262
6.384615424,0.9995150633815889,11.880756516371974
6.394230784,0.9997459268941944,11.628471398045008
6.403846144,0.9999903756869627,11.37306588934604
6.413461504,1.0002354603941033,11.114399249376005
6.423076864,1.0004686140507832,10.85257777630353
6.432692224,1.0006776228297574,10.587827938060896
6.442307584,1.0008516450618656,10.320547629223949
6.451922944,1.000981492804248,10.051207889769342
6.461538304,1.0010604982135465,9.780514093736192
6.471153664,1.0010845663162593,9.509111405046925
6.480769024,1.0010522026010118,9.23773987994279
6.490384384,1.000965071628204,8.967127754882414
6.499999744,1.0008278152229462,8.697926293648042
6.509615616,1.0006474884660437,8.43083230240397
6.519230976,1.0004332985778603,8.166324785229488
6.528846336,1.0001963821070694,7.904735770423647
6.538461696,0.9999492296288893,7.64628767354464
6.548077056,0.9997044959226582,7.391052203836719
6.557692416,0.999475070236835,7.138980981538558
6.567307776,0.9992727869915097,6.889697696969931
6.576923136,0.9991084327599158,6.642822128814017
6.586538496,0.998990367614194,6.3978153543317084
6.596153856,0.9989249651524474,6.153988419148981
6.605769216,0.9989157558764945,5.910626092288588
6.615384576,0.9989630858227031,5.667023395316929
6.624999936,0.9990646490692187,5.422407812690215
6.634615296,0.9992152160377562,5.176126220114221
6.644230656,0.999406727945526,4.927572944269064
6.653846016,0.9996295972760516,4.676311595647771
6.663461376,0.9998719105124549,4.42192661143349
6.673076736,1.0001212067343714,4.1642483367101795
6.682692096,1.0003644636813296,3.9033700611063797
6.692307456,1.0005890057409494,3.6393769015595554
6.701923328,1.0007831158832687,3.372592712145955
6.711538688,1.0009367822545283,3.1035312031788
6.721154048,1.0010419617249817,2.832747803768829
6.730769408,1.001093014960935,2.5608944314531126
6.740384768,1.001087302759031,2.2887015341625463
6.750000128,1.0010251614550567,2.017000775694462
6.759615488,1.0009096625296834,1.7463582894401761
6.769230848,1.0007468851752324,1.4775695953419516
6.778846208,1.0005450386534869,1.2111459158148281
6.788461568,1.0003148748616633,0.9475005166498548
6.798076928,1.0000679479133288,0.6869656303173691
6.807692288,0.9998175379666613,0.42972935070523255
6.817307648,0.9995763223697455,0.17572061599362462
6.826923008,0.999357133696562,-0.07533538633964366
6.836538368,0.9991712263433887,-0.3236743608577811
6.846153728,0.9990285137930371,-0.5699165784757603
6.855769088,0.9989363371203821,-0.814573798698959
6.865384448,0.9988997226930193,-1.0584275217390602
6.874999808,0.9989204361564831,-1.3021511633984504
6.884615168,0.9989977299067275,-1.5465938607610865
6.894230528,0.999127235056152,-1.7923791779985974
6.9038464,0.9993026041493052,-2.040189543808181
6.91346176,0.9995145033445255,-2.290570550924234
6.92307712,0.9997518061025843,-2.543921167842524
6.93269248,1.0000025071619658,-2.800511783957596
6.94230784,1.0002532598097347,-3.060426249516344
6.9519232,1.0004913169073704,-3.3236086994200793
6.96153856,1.00070382864957,-3.5897120492225745
6.97115392,1.000880158390509,-3.8584446287668603
6.98076928,1.0010108621880727,-4.1291714114974525
6.99038464,1.001089168966938,-4.4013228752395674
7.0,1.001110935803391,-4.67413551445289
7.00961536,1.001075060132699,-4.946936882940581
7.01923072,1.0009833246694342,-5.2188712401229935
7.02884608,1.0008403693570316,-5.489315497464977
7.03846144,1.0006535413756907,-5.757631567349453
7.0480768,1.0004327288031292,-6.0232680819454325
7.05769216,1.0001891331774966,-6.2859079401249
7.06730752,0.9999357309590906,-6.545287922517132
7.07692288,0.9996852054076182,-6.801343929387788
7.08653824,0.9994511542354819,-7.054260358565482
7.0961536,0.9992453440786963,-7.304273028182512
7.105769472,0.9990788898984203,-7.551887219341718
7.115384832,0.9989603171561926,-7.797604656979052
7.125000192,0.9988959774697456,-8.042121074187992
7.134615552,0.9988891924889789,-8.286200971984485
7.144230912,0.9989404614858555,-8.530589634448207
7.153846272,0.9990470150872525,-8.776009813781402
7.163461632,0.9992035282123609,-9.023207389728931
7.173076992,0.9994017871919144,-9.272727299086824
7.182692352,0.9996313973666322,-9.525122007510229
7.192307712,0.9998806441185335,-9.78067562566469
7.201923072,1.000136309231843,-10.039556219882206
7.211538432,1.0003851740705674,-10.30181003763417
7.221153792,1.0006143497539817,-10.567218347782399
7.230769152,1.000811768031984,-10.835441420809634
7.240384512,1.0009672163490364,-11.106016870469793
7.249999872,1.0010725052090803,-11.378317332736712
7.259615232,1.0011223420908446,-11.651675778318241
7.269230592,1.0011137780210642,-11.92531962742475
7.278845952,1.001047457852093,-12.198516756200906
7.288461312,1.0009265635454092,-12.470545135727177
7.298076672,1.0007575608438806,-12.740644257363385
7.307692544,1.0005488709831756,-13.00829035910987
7.317307904,1.0003115145075754,-13.27305753021414
7.326923264,1.0000578107340814,-13.534600439623203
7.336538624,0.9998008704779379,-13.792797765361746
7.346153984,0.9995541000712053,-14.047715320690124
7.355769344,0.9993304047628592,-14.29958997336357
7.365384704,0.9991413051565496,-14.54871612457333
7.375000064,0.9989970427306094,-14.79565339588238
7.384615424,0.9989048761489244,-15.041067816664361
7.394230784,0.9988699485465551,-15.285663145417727
7.403846144,0.9988939212047135,-15.530179550120817
7.413461504,0.9989756161160123,-15.775424705080843
7.423076864,0.9991109975121597,-16.022106974050168
7.432692224,0.9992928905944364,-16.270912317575423
7.442307584,0.9995118541915117,-16.522377360434735
7.451922944,0.9997565180030131,-16.77688395454249
7.461538304,1.000014229249749,-17.03473545716037
7.471153664,1.0002714703718292,-17.296011459616278
7.480769024,1.00051487991792,-17.560612247217257
7.490384384,1.0007319443837637,-17.828239798928447
7.500000256,1.0009110931164178,-18.098472828010138
7.509615616,1.0010432521628374,-18.370805275141254
7.519230976,1.0011211738235808,-18.644536271672653
7.528846336,1.0011408297699604,-18.918961997234813
7.538461696,1.0011015346985241,-19.193277899368056
7.548077056,1.0010047858669993,-19.466710077345144
7.557692416,1.0008557697398777,-19.738568010612916
7.567307776,1.0006622025780445,-20.008200466140043
7.576923136,1.0004340106462155,-20.275106340858382
7.586538496,1.0001830036604613,-20.53889095333022
7.596153856,0.9999223076374659,-20.799324682124357
7.605769216,0.9996654522243602,-21.056385407891277
7.615384576,0.9994258346539039,-21.31019552572014
7.624999936,0.9992159244586029,-21.561038385304347
7.634615296,0.9990467170619128,-21.809447607524742
7.644230656,0.9989271066214274,-22.05590702734257
7.653846016,0.9988634537960145,-22.301201180649475
7.663461376,0.9988589962120336,-22.54606301305526
7.673076736,0.9989141337250164,-22.79127208698167
7.682692096,0.9990261807063368,-23.03756949839359
7.692307456,0.9991889647769155,-23.28575659583441
7.701923328,0.9993944553973187,-23.53633663558665
7.711538688,0.9996316893823499,-23.78990021966279
7.721154048,0.9998883829824178,-24.04671105488202
7.730769408,1.0001514408626286,-24.30692995445602
7.740384768,1.0004067480213736,-24.570628380152048
7.750000128,1.0006412303754608,-24.83755430392375
7.759615488,1.0008427464244884,-25.107400381487412
7.769230848,1.0010006689250552,-25.379590096649803
7.778846208,1.0011067821818926,-25.65355461610937
7.788461568,1.0011554139956265,-25.928581388945
7.798076928,1.0011443376592202,-26.203861012822955
7.807692288,1.0010735239022965,-26.478657263663806
7.817307648,1.000947097063453,-26.75218865438614
7.826923008,1.0007712205951353,-27.023777250719306
7.836538368,1.0005551902897216,-27.292812691030612
7.846153728,1.0003099172645389,-27.55882109052582
7.855769088,1.0000483335729784,-27.821558819366025
7.865384448,0.9997840665102687,-28.08084286511413
7.874999808,0.9995309169918614,-28.336765389442366
7.884615168,0.9993018820423913,-28.589508377806627
7.894230528,0.9991090914779334,-28.83949075951079
7.9038464,0.9989625390251157,-29.087251040100483
7.91346176,0.9988700692645047,-29.33343045816882
7.92307712,0.9988364204103851,-29.578841440467876
7.93269248,0.9988634944899201,-29.824182632375692
7.94230784,0.9989500311340972,-30.07031423689121
7.9519232,0.9990914686216938,-30.31795739823001
7.96153856,0.9992803324620102,-30.567794442142446
7.97115392,0.9995072191196323,-30.8203946589077
7.98076928,0.9997599011079048,-31.076168718711788
7.99038464,1.0000254576764362,-31.335388360906112
8.0,1.0002901746954984,-31.59810539247013
8.00961536,1.000540127651169,-31.864254225227103
8.01923072,1.0007622189855574,-32.13352100266444
8.02884608,1.000945014978421,-32.40546648559916
8.03846144,1.0010789843640269,-32.6795253312977
8.0480768,1.0011569538721117,-32.95499254544737
8.05769216,1.001174951185708,-33.231149077800396
8.06730752,1.0011319683287372,-33.50716319285979
8.07692288,1.0010301485148119,-33.782253196730714
8.08653824,1.0008746918749194,-34.055678715451116
8.0961536,1.0006737272480997,-34.326820331544035
8.105769472,1.0004373625368266,-34.595127975109804
8.115384832,1.0001781225300546,-34.86018119968164
8.125000192,0.9999094064602235,-35.121805070160825
8.134615552,0.9996450439252731,-35.37993690174156
8.144230912,0.9993989857389314,-35.63472086394109
8.153846272,0.9991840415978415,-35.88650105801235
8.163461632,0.9990113725359419,-36.13577185114266
8.173076992,0.9988901679598695,-36.38308165726931
8.182692352,0.9988267823066023,-36.62919666636913
8.192307712,0.9988246001855884,-36.874882713202496
8.201923072,0.9988836720148817,-37.120988759163424
8.211538432,0.9990012970252594,-37.36823292650767
8.221153792,0.9991710273639404,-37.61743747070523
8.230769152,0.999384301076525,-37.86915492719648
8.240384512,0.9996299816526708,-38.12394353230272
8.249999872,0.9998951960676853,-38.38210633916752
8.259615232,1.0001663812725583,-38.64382540182242
8.269230592,1.0004291921221744,-38.909073261136896
8.278845952,1.0006700613011885,-39.17766566042976
8.288461312,1.0008764017431906,-39.449226314222294
8.298076672,1.0010374128108284,-39.7232368331474
8.307692544,1.00114487414147,-39.99899761152821
8.317307904,1.0011928310271665,-40.27587235411348
8.326923264,1.001179010269602,-40.55297377533637
8.336538624,1.001103902516964,-40.8295270124544
8.346153984,1.0009715238901669,-41.10476151516403
8.355769344,1.000788441394964,-41.3779503946088
8.365384704,1.0005640488459704,-41.64848953334112
8.375000064,1.000310255560795,-41.91592632030713
8.384615424,1.0000399306170227,-42.17998088575529
8.394230784,0.9997673797390294,-42.440464101525635
8.403846144,0.9995066713065062,-42.697436696224436
8.413461504,0.999271276135998,-42.95120698004218
8.423076864,0.9990738263233222,-43.202101987159814
8.432692224,0.9989243864538182,-43.45075158595954
8.442307584,0.9988308407362708,-43.69782638808179
8.451922944,0.9987984723905674,-43.944078657640176
8.461538304,0.9988286136156438,-44.19029826478887
8.471153664,0.9989198748728491,-44.43735901794111
8.480769024,0.9990678182180377,-44.68601605850466
8.490384384,0.9992644081123082,-44.93699160575271
8.499999744,0.9994999729961971,-45.19079298075673
8.509615616,0.999761593280803,-45.447911389607135
8.519230976,1.0000362523106914,-45.7085971801885
8.528846336,1.0003092753212195,-45.97288877737917
8.538461696,1.000566727390304,-46.24071885982157
8.548077056,1.000794908825693,-46.51174335892054
8.557692416,1.000982242873454,-46.78554346098339
8.567307776,1.001118684724142,-47.06148168938363
8.576923136,1.0011972692064692,-47.33887950218123
8.586538496,1.0012137918753206,-47.616960356127635
8.596153344,1.0011672323696497,-47.89485124370767
8.605769728,1.0010600758032997,-48.171779356572344
8.615385088,1.0008977346232313,-48.446957535278926
8.625000448,1.0006885357859736,-48.71975623099449
8.634615808,1.0004432759587185,-48.98958762608111
8.644231168,1.0001747659402034,-49.256085844306234
8.653846528,0.9998968388615084,-49.51901995025268
8.663461888,0.9996240991598757,-49.77834067376681
8.673077248,0.9993705084151271,-50.03422887840652
8.682692608,0.9991495209895683,-50.28701925543179
8.692307968,0.9989726466264386,-50.53719287686732
8.701923328,0.9988491707642858,-50.78543057300615
8.711538688,0.9987856310504312,-51.03242984789234
8.721154048,0.99878545657564,-51.279027214754265
8.730769408,0.9988485919288614,-51.52605123537234
8.740384768,0.9989719163869838,-51.77434550620529
8.750000128,0.9991491994831504,-52.0246093321013
8.759615488,0.9993711128953107,-52.27752532789781
8.769230848,0.999626002054462,-52.53363807303447
8.778846208,0.9999008377788962,-52.79324237814928
8.788461568,1.00018141490208,-53.05652244316986
8.798076928,1.0004527445956348,-53.3234748171762
8.807692288,1.000701044905301,-53.59387043104512
8.817307648,1.000913229052794,-53.8673209482706
8.826923008,1.0010783708057933,-54.14327878929057
8.836538368,1.0011876572427776,-54.42107321732125
8.846153728,1.001235371240867,-54.69994111680499
8.855769088,1.001218953590086,-54.97904320567298
8.865384448,1.0011394822519866,-55.25755414767066
8.874999808,1.0010004992695574,-55.53467667806572
8.884615168,1.000809561225804,-55.809647773780675
8.894230528,1.0005761804248179,-56.08190351684815
8.903845888,1.0003126564343234,-56.35092010540064
8.913461248,1.0000324963612421,-56.616386824825554
8.923076608,0.9997504716018558,-56.878183188594036
8.932691968,0.9994810270989964,-57.136368928137514
8.942307328,0.9992382996428839,-57.3912155643016
8.951922688,0.999035085062754,-57.64318720981559
8.961538048,0.9988818807731573,-57.89276041292515
8.971153408,0.9987870483072843,-58.14074290063653
8.980768768,0.9987552226073783,-58.387894590204745
8.990384128,0.9987883554747833,-58.63510127494904
8.999999488,0.9988848025955342,-58.883144630139476
9.009615872,0.9990396181272366,-59.13288104069604
9.019231232,0.9992448362623614,-59.38499968745279
9.028846592,0.9994896265983506,-59.64014056011807
9.038461952,0.9997614573484145,-59.898672863220305
9.048077312,1.00004608190346,-60.160915448763
9.057692672,1.0003288600324414,-60.42688681534531
9.067308032,1.0005949932919713,-60.696549096352136
9.076923392,1.0008305036675744,-60.969501327052896
9.086538752,1.0010231998054568,-61.245294680475155
9.096154112,1.0011631306023745,-61.52333651062159
9.105769472,1.0012428087192826,-61.80286335028298
9.115384832,1.0012580633100727,-62.08300406567058
9.125000192,1.0012080337066172,-62.363005037693846
9.134615552,1.001095244683136,-62.64194716519673
9.144230912,1.0009253771768967,-62.91908055766448
9.153846272,1.0007072981200513,-63.193718898802764
9.163461632,1.000451974184864,-63.465279049898115
9.173076992,1.0001730359748544,-63.73335742778332
9.182692352,0.9998848221177684,-63.997740167062126
9.192307712,0.9996021680542598,-64.2583984733438
9.201923072,0.9993398819721897,-64.51548173719043
9.211538432,0.9991116996628432,-64.76939015985857
9.221153792,0.9989295655056584,-65.02057776739976
9.230769152,0.9988029925729844,-65.26975969665673
9.240384512,0.9987388140161053,-65.51772793885306
9.249999872,0.9987403826302754,-65.76526003345313
9.259615232,0.9988076542004696,-66.0132881592825
9.269230592,0.9989372391341252,-66.26261512350524
9.278845952,0.9991225347796642,-66.51406620770726
9.288461312,0.9993537872242244,-66.76827847285219
9.298076672,0.9996192056908424,-67.02577268535683
9.307692032,0.9999048211664432,-67.28691691113778
9.317307392,1.0001959686740838,-67.55192214596146
9.326922752,1.0004773101286606,-67.82067833648698
9.336538112,1.000734319080877,-68.09301985233752
9.346153472,1.0009535955316688,-68.36850886963875
9.355768832,1.0011234917193967,-68.64663432741094
9.365384192,1.0012355045197872,-68.9266255243135
9.374999552,1.0012834953731342,-69.20767224704323
9.384614912,1.0012648575859684,-69.48899191734235
9.394230272,1.0011806131141876,-69.76966222968753
9.403846656,1.0010348253522172,-70.04887833362267
9.413462016,1.000835147784074,-70.32585841958036
9.423077376,1.0005918822547162,-70.59998357832022
9.432692736,1.0003175350715265,-70.87075483675667
9.442308096,1.0000262553059525,-71.13784137202165
9.451923456,0.9997332883537537,-71.40108843612042
9.461538816,0.9994537642296769,-71.66060913612525
9.471154176,0.9992024566729634,-71.91668185835192
9.480769536,0.9989923783660994,-72.16970099254453
9.490384896,0.9988344639134532,-72.42031299546001
9.500000256,0.9987371244981905,-72.66930044524268
9.509615616,0.9987056999400679,-72.91741724595414
9.519230976,0.9987417874644312,-73.16558796680413
9.528846336,0.998843507853554,-73.4147175099849
9.538461696,0.999005825761601,-73.6655704860602
9.548077056,0.9992202219805069,-73.91895358903597
9.557692416,0.9994756218404903,-74.17546110694735
9.567307776,0.9997587634573971,-74.43551408925367
9.576923136,1.0000549654776285,-74.69943527576618
9.586538496,1.0003488486579002,-74.96723710850388
9.596153856,1.0006250308386033,-75.23886031590149
9.605769216,1.0008692659520153,-75.51390122487298
9.615384576,1.0010685771033736,-75.79192226589605
9.624999936,1.0012128677474716,-76.07222938264587
9.634615296,1.001294316729231,-76.35402631981627
9.644230656,1.0013087659784488,-76.63653664579634
9.653846016,1.0012552716458185,-76.91882298555058
9.663461376,1.001136519950634,-77.20002853155708
9.673076736,1.0009586043022896,-77.47931196355533
9.682692096,1.000730683509131,-77.75598344791335
9.692307456,1.0004644178559652,-78.02947409153491
9.701922816,1.0001736341511673,-78.29932351485338
9.711538176,0.9998734646606506,-78.5653156053528
9.721153536,0.999579543034265,-78.82744196744811
9.730768896,0.9993070033217958,-79.08586484390179
9.740384256,0.999070250503062,-79.3409727312382
9.749999616,0.9988816578339511,-79.59326746385979
9.759614976,0.9987510807429005,-79.8434781411529
9.769230336,0.9986855927864119,-80.09244035397154
9.778845696,0.9986885497701432,-80.34099979513607
9.788461056,0.9987599559419323,-80.5900581159592
9.798076416,0.9988961837365252,-80.84051238771104
9.8076928,0.9990902448770307,-81.09316047935782
9.81730816,0.9993321057138217,-81.34870993695088
9.82692352,0.9996091390442252,-81.60771180186144
9.83653888,0.9999070638964602,-81.87052688998389
9.84615424,1.0002103346494957,-82.13731171818192
9.8557696,1.0005032243933678,-82.40806275864077
