freq,mag,phase
6.0,1.0000666333461141,146.19954630296414
6.002286592,1.0003132127017755,146.05432698578454
6.004572672,1.0005427849048503,145.9057125467184
6.006859264,1.0007379602582869,145.7540948768091
6.009145344,1.0008862554820086,145.60003675023233
6.011431936,1.0009781656238115,145.44432948371607
6.013718016,1.0010082366702717,145.28775797366384
6.016004608,1.0009741921841622,145.1313190510436
6.018290688,1.000877983432646,144.97587298087927
6.02057728,1.0007261314324254,144.82230591145373
6.022863872,1.0005277926180842,144.67132996409578
6.025149952,1.0002956094261395,144.523526573337
6.027436544,1.0000440836191893,144.37933526907284
6.029722624,0.9997894322863736,144.23887026532472
6.032009216,0.9995477228406041,144.10209759825398
6.034295296,0.999333831887058,143.9686922892283
6.036581888,0.9991620140226136,143.83819360776087
6.03886848,0.9990427804314671,143.7098802327175
6.04115456,0.998983959438847,143.58294220758063
6.043441152,0.9989891843137421,143.45648267013195
6.045727232,0.9990582904012788,143.32953196046418
6.048013824,0.9991867724161386,143.20119688786448
6.050299904,0.9993667242348189,143.07075071182015
6.052586496,0.9995866677420139,142.93741511075822
6.054872576,0.9998326821142662,142.80078797595172
6.057159168,1.0000892911460038,142.6605437119331
6.05944576,1.00034005024437,142.51672897549685
6.06173184,1.0005691900655236,142.3694707264195
6.064018432,1.000762319327909,142.2192067646802
6.066304512,1.0009070418246677,142.0665741845017
6.068591104,1.0009940506491852,141.9123103436905
6.070877184,1.0010179943014084,141.75733919598952
6.073163776,1.0009772870771712,141.6025158676832
6.075450368,1.0008743897436396,141.4487862802602
6.077736448,1.0007158011149468,141.29704276019496
6.08002304,1.0005115243707168,141.14799261767863
6.08230912,1.0002743961168437,141.00218459504853
6.084595712,1.0000193326452098,140.86003965273156
6.086881792,0.9997625663391955,140.72168661627236
6.089168384,0.9995202569388453,140.58705288347568
6.091454464,0.9993079842442129,140.4557621589936
6.093741056,0.9991390825708367,140.3273220924466
6.096027648,0.9990242782647561,140.20101519334807
6.098313728,0.9989711299587066,140.07600200088953
6.10060032,0.9989829451999659,139.95137332954857
6.1028864,0.9990588626832245,139.82619625087955
6.105172992,0.9991943641366475,139.69954116832633
6.107459072,0.9993806966900614,139.57064021371275
6.109745664,0.9996061437080437,139.43875046122585
6.112032256,0.9998565515267911,139.30352026972454
6.114318336,1.0001158363060028,139.16461403720615
6.116604928,1.0003677961818591,139.02208538722635
6.118891008,1.0005963420243809,138.87610626683247
6.1211776,1.0007869881589928,138.72718796854485
6.12346368,1.0009277411019355,138.57587115524888
6.125750272,1.0010094841469743,138.42306702346173
6.128036352,1.0010271278819292,138.26956982973886
6.130322944,1.0009796026040683,138.11633843348037
6.132609536,1.00086960895413,137.96431460984945
6.134895616,1.0007042601756007,137.81438128512997
6.137182208,1.0004938165651838,137.66718851499104
6.139468288,1.0002517901862824,137.5233804179987
6.14175488,0.9999930671790128,137.3832659675638
6.14404096,0.9997344082892741,137.24694393484435
6.146327552,0.9994920466259174,137.11436413185194
6.148614144,0.9992814889746209,136.98515503909206
6.150900224,0.9991158821923491,136.85875622789132
6.153186816,0.9990060050332648,136.7344189148065
6.155472896,0.9989587916388406,136.6113108124868
6.157759488,0.99897727850875,136.48846333576495
6.160045568,0.9990604658187404,136.3649875356785
6.16233216,0.9992031100950572,136.23989589998547
6.16461824,0.9993959913918892,136.11245041931497
6.166904832,0.9996271163665875,135.98195832767487
6.169191424,0.9998817760958115,135.84800688293592
6.171477504,1.0001437863743439,135.71039477632098
6.173764096,1.0003966194740348,135.56909102186498
6.176050176,1.000624225847384,135.42434936013558
6.178336768,1.0008121875250149,135.27666153254242
6.180622848,1.0009485840513417,135.1266805879754
6.18290944,1.0010247086668327,134.97520330382557
6.18519552,1.0010357880091871,134.82318259057104
6.187482112,1.0009810070489478,134.67150665034117
6.189768704,1.000863669268927,134.5211571084383
6.192054784,1.0006913080266937,134.37297155234887
6.194341376,1.00047467458307,134.22762933619472
6.196627456,1.0002275894923474,134.0857310436592
6.198914048,0.9999655927365956,133.9476154494823
6.201200128,0.9997050727214392,133.81337337245668
6.20348672,0.9994628303672334,133.68280803522268
6.205773312,0.9992540787965868,133.55560787052957
6.208059392,0.9990924145640523,133.4311827992981
6.210345984,0.998987708233997,133.3087606397599
6.212632064,0.9989469177855544,133.1874926100767
6.214918656,0.9989725733574735,133.06639327529348
6.217204736,0.9990631659799408,132.9444963643703
6.219491328,0.9992131279076267,132.8209423329713
6.221777408,0.9994127557469155,132.69488179671606
6.224064,0.9996494701606138,132.56571318237621
6.226350592,0.9999084593671513,132.43301219063704
6.228636672,1.0001730130801532,132.29654765588728
6.230923264,1.000426468884539,132.15642525689594
6.233209344,1.0006529490979845,132.01284725222695
6.235495936,1.0008378380790603,131.86633868264104
6.237782016,1.000969573136384,131.71761120315185
6.240068608,1.0010396331958311,131.5674493357376
6.2423552,1.0010437706960547,131.41684077231287
6.24464128,1.0009814215120962,131.26667591339208
6.246927872,1.000856620280294,131.11792403740378
6.249213952,1.0006770542971672,130.97146672253433
6.251500544,1.0004542542554307,130.82797093867885
6.253786624,1.0002020986387814,130.6879770641242
6.256073216,0.9999365903593246,130.5518094471928
6.258359296,0.9996746689517756,130.4195254159324
6.260645888,0.9994327672882941,130.29098786627938
6.26293248,0.9992262817762807,130.16576187797145
6.26521856,0.9990685176160289,130.04328729128352
6.267505152,0.9989695353895368,129.92273276846566
6.269791232,0.9989354102373166,129.80322270272617
6.272077824,0.9989685516504476,129.68377132042232
6.274363904,0.999067053091664,129.56345464613804
6.276650496,0.9992244881388616,129.4412981073165
6.278937088,0.9994308950982695,129.31656878411957
6.281223168,0.9996734155670419,129.1886533115632
6.28350976,0.9999363773254011,129.05711709962858
6.28579584,1.000203346436254,128.92178984934208
6.288082432,1.0004574472413121,128.78274699827838
6.290368512,1.000682343736543,128.64023493130165
6.292655104,1.0008638827930236,128.494890437981
6.294941184,1.0009906203252117,128.34731343296937
6.297227776,1.0010543472338076,128.1984491163965
6.299514368,1.0010510404921986,128.04918467083613
6.301800448,1.0009809422129285,127.90049690640829
6.30408704,1.0008481513253518,127.75334385999855
6.30637312,1.000661418270491,127.60856462164593
6.308659712,1.0004323322724409,127.46683498705139
6.310945792,1.0001751313803557,127.3287139207534
6.313232384,0.9999064324613729,127.19448668187769
6.315518464,0.9996430514775528,127.06415988291003
6.317805056,0.9994019447295861,126.9375768177905
6.320091648,0.9991980961838893,126.81432089990317
6.322377728,0.9990446595461967,126.69370960981617
6.32466432,0.9989515111766156,126.57494160475795
6.3269504,0.9989246519727286,126.45715064501013
6.329236992,0.9989656235947423,126.33930558107579
6.331523072,0.9990720376547588,126.22045000066983
6.333809664,0.9992372478095174,126.09967560487813
6.336096256,0.9994506852369673,125.97622835136598
6.338382336,0.9996987613887683,125.84948036300617
6.340668928,0.9999658240190425,125.71900538007773
6.342955008,1.0002351703794639,125.58470171446623
6.3452416,1.0004892918211146,125.44665641188628
6.34752768,1.0007124678167778,125.3052209782321
6.349814272,1.0008901342750385,125.16091798224375
6.352100352,1.001011492506288,125.0144975646532
6.354386944,1.0010685192351194,124.86682761755677
6.356673536,1.0010574314016674,124.71887002427353
6.358959616,1.0009792258781327,124.57162901819281
6.361246208,1.0008386173671227,124.42603127560682
6.363532288,1.000644365865889,124.28288833117333
6.36581888,1.0004087332137903,124.14293033979916
6.36810496,1.0001466982440288,124.00664212130205
6.370391552,0.9998748103173754,123.87430259124277
6.372678144,0.9996103918284883,123.7459064200024
6.374964224,0.9993701728857505,123.62125060508785
6.377250816,0.9991693401230402,123.49987236855881
6.379536896,0.9990207685814498,123.3810823254118
6.381823488,0.9989339848082833,123.26408083997876
6.384109568,0.9989143895886129,123.14794909168143
6.38639616,0.9989636456236469,123.03161697856518
6.38868224,0.9990783238439841,122.91417341024268
6.390968832,0.9992514782978295,122.79469082995281
6.393255424,0.9994718257377646,122.67244072446718
6.395541504,0.9997256633940468,122.5467547997928
6.397828096,0.999996722044883,122.41730349257163
6.400114176,1.0002679075842515,122.28397564581111
6.402400768,1.000521991024662,122.1468667918423
6.404686848,1.0007430809279378,122.00638483985736
6.40697344,1.0009167294057044,121.86311128717051
6.409260032,1.0010321119727332,121.71773522662532
6.411546112,1.0010820193242058,121.57122738389788
6.413832704,1.0010631177207263,121.42455976233701
6.416118784,1.000976415507899,121.27870081348347
6.418405376,1.0008275090201577,121.13460289166156
6.420691456,1.000625760922186,120.99308738463863
6.422978048,1.0003838024979828,120.85486983930927
6.425264128,1.0001169315468246,120.72040097324108
6.42755072,0.999842035639159,120.58989848003611
6.429837312,0.9995767669218182,120.46339657701145
6.432123392,0.9993378386334372,120.3406020591937
6.434409984,0.9991402170998285,120.22107202939351
6.436696064,0.9989969274342365,120.10410887711731
6.438982656,0.9989167820951238,119.98878205691474
6.441268736,0.9989051305905834,119.87420980134131
6.443555328,0.998962723257963,119.75936214000092
6.44584192,0.9990859518957566,119.64327409519811
6.448128,0.9992670146192667,119.52498504760976
6.450414592,0.9994945476688055,119.40383018897806
6.452700672,0.9997538861462348,119.27913450900742
6.454987264,1.0000288590328246,119.15063246600734
6.457273344,1.0003019250401703,119.01821329939776
6.459559936,1.00055571929316,118.88199809885447
6.461846016,1.000774143983371,118.7424082470771
6.464132608,1.0009433568969428,118.6000625363393
6.4664192,1.0010526624815892,118.4557201274066
6.46870528,1.0010949877451347,118.31034453814708
6.470991872,1.001067689498681,118.16492368512398
6.473277952,1.0009723443569025,118.02040845825974
6.475564544,1.0008150518597787,117.87778477746589
6.477850624,1.0006056469119122,117.73786007304288
6.480137216,1.0003573088698272,117.60132152179828
6.482423296,1.0000857631662692,117.46862441644046
6.484709888,0.9998081251805544,117.33994834455659
6.48699648,0.9995421760733864,117.21528168536595
6.48928256,0.9993046425876333,117.09434406064564
6.491569152,0.9991109018301179,116.97660628488744
6.493855232,0.9989731625953687,116.86135825840985
6.496141824,0.9989001439782953,116.7476748599825
6.498427904,0.9988966727517828,116.63463127313048
6.500714496,0.9989630691986096,116.52116212984515
6.503001088,0.9990951179006055,116.40633785111945
6.505287168,0.9992843531623831,116.28920521817147
6.50757376,0.9995189560733205,116.1690515502878
6.50985984,0.9997838910337652,116.04531400609909
6.512146432,1.0000625720777874,115.91766683167286
6.514432512,1.0003371898049322,115.78603965574624
6.516719104,1.0005901945586408,115.65066437321292
6.519005184,1.0008058338968597,115.51190194825098
6.521291776,1.0009700204131695,115.37044587496334
6.523578368,1.0010728537367803,115.22709439259577
6.525864448,1.001107295672824,115.08278831168349
6.52815104,1.0010712283045649,114.93853146869732
6.53043712,1.0009669424977163,114.79534983681538
6.532723712,1.0008010600930433,114.65417162490772
6.535009792,1.000583807158671,114.51581864102464
6.537296384,1.0003291434191257,114.38093894767694
6.539582976,1.0000528948732765,114.24995734262374
6.541869056,0.9997728053312784,114.1230759215002
6.544155648,0.9995064956353099,114.00021547906766
6.546441728,0.9992710382924439,113.88107885674577
6.54872832,0.999081268039254,113.76509437476417
6.5510144,0.9989495813756514,113.65150960722794
6.553300992,0.9988839976809513,113.53942213556253
6.555587072,0.9988892513180976,113.4278159060559
6.557873664,0.9989646409574369,113.31568611696544
6.560160256,0.999105589305758,113.20206352399198
6.562446336,0.9993031905959355,113.08599592865905
6.564732928,0.9995448768077168,112.96679340365836
6.567019008,0.9998153334684389,112.84390084299523
6.5693056,1.0000974870216748,112.71705121373478
6.57159168,1.0003733278612286,112.58617054160426
6.573878272,1.0006254957746241,112.45152072656902
6.576164864,1.000837706429149,112.31355256332877
6.578450944,1.000996822766154,112.17292276294874
6.580737536,1.0010925284226224,112.03050223260776
6.583023616,1.0011186768659763,111.88723016044354
6.585310208,1.001073625719873,111.74414066685965
6.587596288,1.0009601356861626,111.60220709801442
6.58988288,1.0007855315659733,111.46243241256124
6.59216896,1.000560351792099,111.32561752221471
6.594455552,1.0002993916544167,111.1923781499653
6.596742144,1.0000186714818349,111.06309815716459
6.599028224,0.9997361958011076,110.93797811404457
6.601314816,0.9994700026660968,110.81687979339385
6.603600896,0.9992367358386812,110.69951443857876
6.605887488,0.9990516644360956,110.58521669163873
6.608173568,0.9989263052090833,110.47325260697295
6.61046016,0.9988686737145681,110.36268827957504
6.612746752,0.9988826078791413,110.25247598556247
6.615032832,0.9989674464246218,110.14161799251326
6.617319424,0.9991176226418609,110.02908209682224
6.619605504,0.9993235761821012,109.91400247362091
6.621892096,0.999572381591969,109.79568046933609
6.624178176,0.9998483122009927,109.67356494942628
6.626464768,1.0001337637243555,109.54742289491966
6.628750848,1.0004107187658016,109.41725577213916
6.63103744,1.0006613536733637,109.28327067308247
6.633324032,1.0008700170487155,109.14603615002152
6.635610112,1.0010233277088203,109.006156408217
6.637896704,1.001111655887239,108.86460760352921
6.640182784,1.0011291492925563,108.72230258027174
6.642469376,1.0010747793966799,108.58031354093822
6.644755456,1.0009519191509682,108.43966964038934
6.647042048,1.0007682651318714,108.30124751554655
6.649328128,1.000535341977434,108.16595536372158
6.65161472,1.0002679159816792,108.03430157286412
6.653901312,0.9999830172787196,107.90669591423016
6.656187392,0.9996985148875376,107.7833030459507
6.658473984,0.9994324493223765,107.66396905220232
6.660760064,0.9992021974351203,107.54828499681892
6.663046656,0.9990218712219652,107.43566191589474
6.665332736,0.998903315663824,107.32524305119112
6.667619328,0.9988540314501136,107.21614591891615
6.66990592,0.9988772666424164,107.10727980603527
6.672192,0.9989716205773932,106.99759111765906
6.674478592,0.9991310494322111,106.88609884953516
6.676764672,0.9993456929621048,106.77195662849279
6.679051264,0.9996016725003044,106.65439147855808
6.681337344,0.9998828634973856,106.53298463000164
6.683623936,1.0001713919508894,106.40748727355215
6.685910016,1.0004489114391912,106.27794075852051
6.688196608,1.0006979242775567,106.14457946403373
6.6904832,1.000902495332232,106.00795647157429
6.69276928,1.0010498209438339,105.86881254808847
6.695055872,1.0011300917892811,105.72808489353794
6.697341952,1.0011386798359438,105.5867587058391
6.699628544,1.001074687273494,105.4458428655952
6.701914624,1.000942187966385,105.30640154988872
6.704201216,1.0007493452217733,105.16937405193953
6.706487808,1.0005086031146402,105.03550667898946
6.708773888,1.0002350054452656,104.90540845462228
6.71106048,0.999945822430327,104.77950388672969
6.71334656,0.9996595397328846,104.65777574429758
6.715633152,0.9993943931063485,104.5401158361271
6.717919232,0.9991671160459703,104.42610977396632
6.720205824,0.99899223235545,104.31508595722657
6.722491904,0.9988808088880788,104.2061986283472
6.724778496,0.9988403138427452,104.09848651696325
6.727065088,0.9988731573062596,103.99084303078752
6.729351168,0.9989774023614689,103.8822738479117
6.73163776,0.9991464616038988,103.7717707819675
6.73392384,0.9993694688024684,103.65846823922087
6.736210432,0.9996325930301961,103.54165154101688
6.738496512,0.9999189627101686,103.42084436809712
6.740783104,1.0002102887188171,103.29591174321145
6.743069696,1.0004881717603114,103.16688361944561
6.745355776,1.0007349693913,103.03408550708951
6.747642368,1.0009351721660134,102.8980849524202
6.749928448,1.0010758006036145,102.75960603144226
6.75221504,1.0011480272838724,102.61965909591437
6.75450112,1.0011471564977434,102.4792245450729
6.756787712,1.001073179581115,102.33936909380402
6.759073792,1.0009308853724836,102.20109031777078
6.761360384,1.0007288409816013,102.06538571440144
6.763646976,1.000480242221529,101.93298917211813
6.765933056,1.0002005325752537,101.80445546812811
6.768219648,0.9999074644751264,101.6801156838414
6.770505728,0.9996197392617907,101.56007511077934
6.77279232,0.9993555253730949,101.44410756649349
6.7750784,0.9991317107195421,101.33170150745646
6.777364992,0.9989625613615034,101.22221972091529
6.779651584,0.9988589045803167,101.11479627947544
6.781937664,0.9988275683097493,101.00839267590685
6.784224256,0.9988703432388117,100.90196803966793
6.786510336,0.9989847400321867,100.79443144144544
6.788796928,0.9991634032886242,100.68480940538454
6.791083008,0.9993951844566067,100.5722425005611
6.7933696,0.9996653446383538,100.456087879627
6.79565568,0.9999564186201342,100.3358553574669
6.797942272,1.0002503914453378,100.21142262962663
6.800228864,1.0005283188658252,100.08285485355701
6.802514944,1.0007727425762332,99.95055160810455
6.804801536,1.0009678183517465,99.81507257887296
6.807087616,1.0011015040756817,99.67725654869619
6.809374208,1.0011650729798778,99.53801863609048
6.811660288,1.0011544609772205,99.39847140912862
6.81394688,1.0010702357833077,99.25961591313455
6.81623296,1.0009177826139746,99.12253252212804
6.818519552,1.0007066288314426,98.98812327560246
6.820806144,1.000450059265823,98.85711277083094
6.823092224,1.000164334855638,98.73010268790529
6.825378816,0.9998677136646618,98.60737301566175
6.827664896,0.9995787384343309,98.48891643159267
6.829951488,0.9993160382018942,98.37454996048966
6.832237568,0.9990961562461914,98.26375794405783
6.83452416,0.9989333358975673,98.15577590783039
6.836810752,0.9988378281852769,98.04974278819222
6.839096832,0.998815848322211,97.94460270910902
6.841383424,0.9988687755490333,97.83931006273495
6.843669504,0.9989935686483818,97.73275024537054
6.845956096,0.999182226048927,97.62393888902652
6.848242176,0.9994224971765243,97.51207442171139
6.850528768,0.9996995012503045,97.39646489098926
6.852814848,0.9999954633837547,97.27670957827995
6.85510144,1.000291680547776,97.15271023395152
6.857388032,1.0005692895024678,97.02454914829401
6.859674112,1.000810653468092,96.89267837025632
6.861960704,1.0010004658447222,96.75767865190011
6.864246784,1.0011266022525653,96.6204306971567
6.866533376,1.0011811029154605,96.48192200166379
6.868819456,1.0011603539110865,96.34320381516224
6.871106048,1.0010657121987152,96.20532228588813
6.87339264,1.0009029926537558,96.06936831037677
6.87567872,1.0006825216035746,95.93621637941457
6.877965312,1.0004181170795652,95.80663314441684
6.880251392,1.0001265865931273,95.6811110693947
6.882537984,0.9998265815467245,95.55993509012204
6.884824064,0.9995367970335809,95.44308172834147
6.887110656,0.9992758426934004,95.33028709713166
6.889396736,0.9990604001451109,95.22102862207144
6.891683328,0.9989042863539194,95.11451145062433
6.89396992,0.9988173202479596,95.00980030182
6.896256,0.9988052715455,94.90589210594365
6.898542592,0.9988688571800481,94.80163697491304
6.900828672,0.9990042062022099,94.6959615249126
6.903115264,0.9992026861637227,94.5879206279194
6.905401344,0.9994516989240325,94.476632462865
6.907687936,0.9997354806306674,94.36152042047671
6.909974528,1.0000360099420915,94.2421704509881
6.912260608,1.0003341306428704,94.11852782068749
6.9145472,1.0006109345667478,93.99071053659603
6.91683328,1.000848987914651,93.85921690651207
6.919119872,1.001032984230478,93.72467783440348
6.921405952,1.0011512151257898,93.58797763648175
6.923692544,1.0011961833088308,93.45010165951409
