freq,mag,phase
6.0,0.9997412884043148,-67.92087064024905
6.008538112,0.9996892142039082,-68.30951615798007
6.017075712,0.9996538157571105,-68.69765175866624
6.025613824,0.9996362189457813,-69.08562463310203
6.034151424,0.9996379345828905,-69.47362975045252
6.042689536,0.9996589099224986,-69.86193033845701
6.051227136,0.9996978017026689,-70.25075320085631
6.059765248,0.9997531222924368,-70.64029672092711
6.068302848,0.9998213282490273,-71.03084742173174
6.07684096,0.9998993568265828,-71.42244631891866
6.085379072,0.9999828776100288,-71.81527690646263
6.093916672,1.0000674231713351,-72.20938022955909
6.102454784,1.0001487919288947,-72.60471426090264
6.110992384,1.00022222699933,-73.00122750331845
6.119530496,1.0002846036784747,-73.39877292819338
6.128068096,1.0003316501956976,-73.79721241246288
6.136606208,1.0003616288091626,-74.19626393184262
6.14514432,1.0003722867794014,-74.59577732513854
6.15368192,1.00036359550453,-74.99541723215496
6.162220032,1.0003355712078914,-75.39493642380718
6.170757632,1.000289757681374,-75.79421382267849
6.179295744,1.0002287007362143,-76.19280510265484
6.187833344,1.0001552001489982,-76.59073595581178
6.196371456,1.0000735003987387,-76.98776165160538
6.204909056,0.9999875720765475,-77.38379385992754
6.213447168,0.9999022311315956,-77.77884044909887
6.22198528,0.9998219595423691,-78.17289300365128
6.23052288,0.9997506675110983,-78.5661479033678
6.239060992,0.9996924388167292,-78.9586289906163
6.247598592,0.9996504829662772,-79.35056818292993
6.256136704,0.9996266989937529,-79.74223994997482
6.264674304,0.9996227183645011,-80.133848385411
6.273212416,0.9996387535183683,-80.52568085968738
6.281750016,0.9996739165501293,-80.91794982342161
6.290288128,0.9997262546323863,-81.31094609823604
6.29882624,0.9997931208117363,-81.70489010072234
6.30736384,0.9998713845435125,-82.09990347550375
6.315901952,0.9999564661731087,-82.49616872922758
6.324439552,1.0000442279376627,-82.893659347583
6.332977664,1.0001298132739873,-83.29249580767903
6.341515264,1.0002087297901836,-83.69252431637209
6.350053376,1.0002768582423875,-84.09371512599375
6.358591488,1.0003306176887579,-84.49578664735606
6.367129088,1.0003670030569507,-84.89861718442232
6.3756672,1.0003840362996317,-85.30195410687419
6.3842048,1.0003809947704752,-85.70553930176399
6.392742912,1.0003578586563302,-86.10906455748123
6.401280512,1.000315841226523,-86.51231557354296
6.409818624,1.0002568916265036,-86.91499767286471
6.418356224,1.0001843381949866,-87.31705561733688
6.426894336,1.0001019839064236,-87.7181253798089
6.435432448,1.0000138776954028,-88.11823068541487
6.443970048,0.9999248844670309,-88.51731309927128
6.45250816,0.9998396263729149,-88.91540281078797
6.46104576,0.9997627473369411,-89.31247844203122
6.469583872,0.9996980793750633,-89.70880397743974
6.478121472,0.9996492200383836,-90.1044886122608
6.486659584,0.9996190102864297,-90.4997931265591
6.495197184,0.999608553860832,-90.89491126418629
6.503735296,0.9996189412066211,-91.2902113273387
6.512273408,0.999649315426246,-91.68586402381649
6.520811008,0.9996985242830265,-92.08219222541416
6.52934912,0.9997636304334698,-92.47939429783371
6.53788672,0.9998414977469868,-92.87767278984366
6.546424832,0.9999278445943621,-93.27718191524683
6.554962432,1.0000183099559379,-93.67799558573022
6.563500544,1.0001079929700372,-94.08011455275143
6.572038656,1.0001924483585605,-94.48357383489895
6.580576256,1.0002666956022896,-94.88816645012811
6.589114368,1.0003272636285203,-95.2938033203248
6.597651968,1.0003706968228498,-95.70026600679738
6.60619008,1.0003947169699523,-96.10729519127628
6.61472768,1.0003979490386432,-96.51467523583821
6.623265792,1.0003803127839812,-96.92209335353658
6.631803392,1.0003426117959073,-97.32922199384092
6.640341504,1.000286750468277,-97.73593901111288
6.648879616,1.0002156168791763,-98.14191379155453
6.657417216,1.0001328664269684,-98.54698484965273
6.665955328,1.0000429883384716,-98.95109973535732
6.674492928,0.9999505632302286,-99.35411504173649
6.68303104,0.9998607267317525,-99.75606923378803
6.69156864,0.9997778224888768,-100.1570048377136
6.700106752,0.9997064650552671,-100.55703437651664
6.708644864,0.9996506179127481,-100.9563053890969
6.717182464,0.999612910848606,-101.35509530901781
6.725720576,0.9995955240602988,-101.75368334351275
6.734258176,0.9995996587202554,-102.15230734801399
6.742796288,0.999624637374568,-102.55122341824818
6.751333888,0.9996698148902681,-102.95069518856054
6.759872,0.9997325267853647,-103.35104463168709
6.7684096,0.999809341796652,-103.7524237171793
6.776947712,0.9998965353082357,-104.15500333191858
6.785485824,0.9999894211113808,-104.55893289860572
6.794023424,1.0000832189283475,-104.96421408069823
6.802561536,1.0001728622145785,-105.37082227331935
6.811099136,1.0002535305857905,-105.77865577495825
6.819637248,1.0003211898036377,-106.18766419506089
6.828174848,1.0003720910798695,-106.59752991648993
6.83671296,1.0004035268247216,-107.00809761777897
6.84525056,1.00041381550209,-107.41910025778111
6.853788672,1.0004023534455782,-107.83020121269861
6.862326784,1.0003697227758694,-108.24111658203572
6.870864384,1.0003174613223484,-108.65163200046297
6.879402496,1.000248390590823,-109.06145940205829
6.887940096,1.0001660438078483,-109.47044590089128
6.896478208,1.0000748509339057,-109.87834684545746
6.905015808,0.9999793034206299,-110.28519542260825
6.91355392,0.9998847541280702,-110.69089470765819
6.922092032,0.999796004889687,-111.09550172331903
6.930629632,0.999717890860926,-111.49911298790224
6.939167744,0.9996543229375595,-111.90189825260352
6.947705344,0.9996088735744466,-112.30407870457826
6.956243456,0.9995839415816576,-112.70595040985593
6.964781056,0.9995809690002568,-113.10770058911318
6.973319168,0.9996000865616349,-113.50966275974623
6.981856768,0.999640315470357,-113.91216519801502
6.99039488,0.9996996485290385,-114.31541114819542
6.998932992,0.9997750283002323,-114.71969209320206
7.007470592,0.9998624638155511,-115.12515622987688
7.016008704,0.9999574055940188,-115.53194550720865
7.024546304,1.000054938931168,-115.94013439068395
7.033084416,1.0001497294294157,-116.34969107864373
7.041622016,1.0002369996213352,-116.76057453003607
7.050160128,1.0003120982277836,-117.17268630307068
7.058697728,1.0003707635283827,-117.58577079850058
7.06723584,1.000410299840953,-117.99962493220865
7.075773952,1.0004281897515042,-118.41401640416747
7.084311552,1.0004237834609389,-118.82857085363743
7.092849664,1.000396943792768,-119.24309979696721
7.101387264,1.000349126094083,-119.65724771695511
7.109925376,1.0002828738039948,-120.07071485445297
7.118462976,1.0002016440095185,-120.48340248455364
7.127001088,1.0001094279993437,-120.89499655163736
7.1355392,1.0000112592774677,-121.30547373279367
7.1440768,0.9999123406063284,-121.71476733915695
7.152614912,0.9998177145052818,-122.1228868771281
7.161152512,0.9997324780878133,-122.52992051332475
7.169690624,0.9996611395729161,-122.93603641644052
7.178228224,0.9996075285113569,-123.34141577618476
7.186766336,0.9995743111775724,-123.74633484685538
7.195303936,0.9995635830505845,-124.15107236881364
7.203842048,0.9995758155925832,-124.55591930923315
7.21238016,0.9996104801995201,-124.96119092268887
7.22091776,0.9996657971810091,-125.36716010269026
7.229455872,0.9997388707373742,-125.77407867022002
7.237993472,0.9998259200059805,-126.18215260678434
7.246531584,0.99992236750342,-126.59156454239972
7.255069184,1.0000232367777149,-127.00237644974602
7.263607296,1.000123197973982,-127.4146241942194
7.272144896,1.0002169467821018,-127.82829205436695
7.280683008,1.0002994980063018,-128.24321536012104
7.28922112,1.000366469754741,-128.65923298223595
7.29775872,1.0004145654882501,-129.07610638639306
7.306296832,1.000440897362573,-129.493661795109
7.314834432,1.0004441285436465,-129.91146038221336
7.323372544,1.000424022156961,-130.32928766773324
7.331910144,1.0003815161962495,-130.746811735115
7.340448256,1.0003188943364678,-131.16373154087705
7.348986368,1.0002393296148342,-131.5798665659348
7.357523968,1.0001468999875658,-131.9949466863866
7.36606208,1.0000466362645382,-132.40885456853664
7.37459968,0.9999435433768629,-132.82153186902292
7.383137792,0.9998431486529169,-133.23297536770286
7.391675392,0.9997508589618097,-133.64324951966526
7.400213504,0.9996714158505271,-134.05248622738742
7.408751104,0.9996089882391678,-134.46085008781395
7.417289216,0.9995671060854416,-134.8686507769072
7.425827328,0.9995478522605311,-135.27616831741966
7.434364928,0.999552426695902,-135.68361225157315
7.44290304,0.9995805719454336,-136.09142615904386
7.45144064,0.9996310022535756,-136.4998020312544
7.459978752,0.9997008965651664,-136.9090941698643
7.468516352,0.9997868730904389,-137.3195060342288
7.477054464,0.999884213227521,-137.73123616017673
7.485592064,0.9999880277523105,-138.1443806246507
7.494130176,1.0000927852215051,-138.5590270019344
7.502668288,1.0001929759849013,-138.97511278505152
7.511205888,1.0002832401880857,-139.3925625842274
7.519744,1.0003589990751314,-139.81120724531024
7.5282816,1.0004159724815473,-140.23083779835744
7.536819712,1.0004513502267818,-140.65116401649956
7.545357312,1.0004631036235,-141.07192673451243
7.553895424,1.0004505557085874,-141.4927684945304
7.562433536,1.0004142736055286,-141.91341072659304
7.570971136,1.000356166578622,-142.3335020407219
7.579509248,1.0002791164046354,-142.75283697659754
7.588046848,1.0001872248605108,-143.17117688932055
7.59658496,1.000085180617625,-143.58828920838116
7.60512256,0.9999785090502987,-144.00414194482897
7.613660672,0.9998725759058402,-144.4186751939125
7.622198272,0.999773102177834,-144.83194823572185
7.630736384,0.9996853315289749,-145.24404030561837
7.639274496,0.999613868537297,-145.65519370135266
7.647812096,0.9995625153877549,-146.06563604423238
7.656350208,0.9995340999811327,-146.47559628604986
7.664887808,0.9995300680492769,-146.8854179115287
7.67342592,0.9995509239701511,-147.29546573460058
7.68196352,0.9995954525978078,-147.70601433487363
7.690501632,0.999661287049185,-148.11736246873454
7.699039232,0.9997453337877897,-148.52982987055313
7.707577344,0.9998429336956745,-148.94352213257022
7.716115456,0.9999490892812706,-149.35867822351287
7.724653056,1.0000582736535275,-149.7753182381166
7.733191168,1.0001647874197561,-150.19351106122548
7.741728768,1.0002628396621827,-150.6131120060254
7.75026688,1.0003473767505127,-151.0340436998306
7.75880448,1.0004140406355442,-151.45605297076142
7.767342592,1.0004589866503333,-151.87887580873536
7.775880704,1.0004800750430007,-152.30222986142977
7.784418304,1.000475948840144,-152.72581458106833
7.792956416,1.000446772151068,-153.14924696961992
7.801494016,1.000394129561375,-153.57222451875842
7.810032128,1.0003205294232795,-153.99450848621768
7.818569728,1.0002299675991726,-154.41574866105046
7.82710784,1.0001270592662121,-154.83582637678361
7.83564544,1.0000171041115553,-155.2545537792573
7.844183552,0.9999059804135274,-155.67192929337727
7.852721664,0.9997995067159764,-156.08790603763904
7.861259264,0.9997032692149427,-156.5026770282814
7.869797376,0.9996223526411323,-156.91631449366793
7.878334976,0.9995611289061063,-157.32908245751284
7.886873088,0.9995228174626826,-157.74126451092314
7.895410688,0.9995094548979409,-158.1531818426598
7.9039488,0.9995219396688488,-158.5651741841601
7.912486912,0.9995596680504701,-158.97755367629549
7.921024512,0.9996206007186685,-159.39065366214345
7.929562624,0.9997017498466049,-159.80475800040116
7.938100224,0.9997988125805128,-160.2201162446194
7.946638336,0.9999066239809655,-160.6368999961949
7.955175936,1.0000198038753834,-161.05520420171158
7.963714048,1.0001323928889456,-161.4751228390604
7.972251648,1.000238220955814,-161.89650937996828
7.98078976,1.0003318980456846,-162.31929949891727
7.989327872,1.0004084428754472,-162.74331065887085
7.997865472,1.0004637441551816,-163.16826853203617
8.006403584,1.00049490569662,-163.59387069322108
8.014941184,1.0005000610109653,-164.01979181902527
8.023479296,1.0004790306282236,-164.44570795942982
8.032016896,1.000432809880245,-164.87124409216256
8.040555008,1.0003636176685984,-165.29610140176402
8.049092608,1.0002753185118365,-165.72001226994627
8.05763072,1.0001721756946769,-166.1427318505319
8.066168832,1.00005976539083,-166.56405725155938
8.074706432,0.9999438105721652,-166.98399988352566
8.083244544,0.9998304452301824,-167.4024402934552
8.091782144,0.9997256993067883,-167.81956665974704
8.100320256,0.9996350227388373,-168.23540733260987
8.108857856,0.9995633517058845,-168.6502365356793
8.117395968,0.9995143873424686,-169.0643500453187
8.12593408,0.99949086875466,-169.4780445537691
8.13447168,0.999494102749453,-169.89165485115748
8.143009792,0.9995238158861519,-170.30551357358027
8.151547392,0.9995788202267571,-170.72003869588636
8.160085504,0.999656071725656,-171.13545861366006
8.168623104,0.9997516715438757,-171.55208135369782
8.177161216,0.999860579653776,-171.97011519076605
8.185698816,0.9999771924164134,-172.38970548809527
8.194236928,1.000095392543771,-172.81086707029834
8.20277504,1.0002088368729012,-173.23365272371302
8.21131264,1.0003117519782134,-173.65794013698022
8.219850752,1.0003986067643889,-174.08354722898838
8.228388352,1.000464739404524,-174.51022506204808
8.236926464,1.0005066600056267,-174.93766157422607
8.245464064,1.000522167334306,-175.3655759981164
8.254002176,1.0005102270381352,-175.793591637575
8.262539776,1.000471550272919,-176.22129714270417
8.271077888,1.0004080208102049,-176.64842954115994
8.279616,1.000322763488639,-177.07463612675338
8.2881536,1.0002202291972533,-177.4996772079328
8.296691712,1.0001060365759795,-177.9233218248813
8.305229312,0.9999857577119398,-178.34552444054998
8.313767424,0.9998658686668771,-178.7661270446499
8.322305024,0.9997527410669025,-179.18528177243968
8.330843136,0.9996522312489985,-179.60309398673553
8.339381248,0.9995696539618011,179.98029705358633
8.347918848,0.9995094054812933,179.56459531390263
8.35645696,0.999474918765992,179.14945059285554
8.36499456,0.9994677738612029,178.73453750921502
8.373532672,0.9994885899760622,178.3195287358345
8.382070272,0.9995364911440966,177.90399899085455
8.390608384,0.999608909612372,177.4876050485476
8.399145984,0.9997020429045123,177.07011420235963
8.407684096,0.9998111178682284,176.65124925934495
8.416222208,0.9999305307463721,176.23079635150125
8.424759808,1.000053791143999,175.808707531486
8.43329792,1.0001747149176867,175.38498105137822
8.44183552,1.0002869042785445,174.95962810722975
8.450373632,1.0003842841160222,174.5328816771942
8.458911232,1.000461902679772,174.10490319466606
8.467449344,1.0005153863907472,173.67599555866772
8.475986944,1.0005421350571673,173.24650231876944
8.484525056,1.0005403118576641,172.8168201072591
8.493063168,1.000510189768074,172.38724585309467
8.501600768,1.0004533125636166,171.9582255653061
8.51013888,1.0003723493315506,171.5300514842612
8.51867648,1.0002716048956937,171.10304642137018
8.527214592,1.000156264388959,170.67738232024948
8.535752192,1.0000323027713087,170.25328738059565
8.544290304,0.9999063450034648,169.83077257269554
8.552828416,0.999784769211537,169.40985896116257
8.561366016,0.9996742609157963,168.99046671248772
8.569904128,0.9995804504014876,168.57237289318965
8.578441728,0.9995083954347584,168.15533596372723
8.58697984,0.9994620888059456,167.73906714852728
8.59551744,0.9994436958273676,167.32321260422404
8.604055552,0.9994545713978285,166.9073809356935
8.612593664,0.9994941115784441,166.491172710595
8.621131776,0.999560438120331,166.07424664638148
8.629668864,0.9996499547163834,165.65622884952055
8.638206976,0.9997581890083374,165.2369193383852
8.646745088,0.9998796183202475,164.81605534499732
8.6552832,1.0000076159086768,164.39348037228626
8.663820288,1.0001355705702963,163.96920110353665
8.6723584,1.0002568863323267,163.543269677986
8.680896512,1.0003651756682213,163.11576432559917
8.689434624,1.000454506548462,162.6869125003243
8.697972736,1.000520242754507,162.25700149717537
8.706509824,1.0005590624475629,161.82633759470627
8.715047936,1.0005685503225912,161.3953477719084
8.723586048,1.0005481868952364,160.9643412964987
8.73212416,1.0004990480689377,160.53377989613733
8.740661248,1.000423503648008,160.10399234951055
8.74919936,1.0003254442182345,159.6753134271236
8.757737472,1.0002099438267245,159.24804177276704
8.766275584,1.0000831801114358,158.8222882668868
8.774813696,0.9999515681436039,158.39823323273401
8.783350784,0.9998220924742128,157.97585555810784
8.791888896,0.9997014513878568,157.55512473616926
8.800427008,0.9995961431491553,157.1358666452903
8.80896512,0.9995115880099374,156.7178579959372
8.817502208,0.9994525030234438,156.30077092081547
8.82604032,0.9994219191887935,155.8842641982148
8.834578432,0.9994217086348882,155.4679311655004
8.843116544,0.999451751231529,155.05141330051774
8.851654656,0.9995108840159371,154.63430154708334
8.860191744,0.9995957526622083,154.21621140111546
8.868729856,0.9997022299090152,153.79684335582849
8.877267968,0.9998244687086008,153.37593822699287
8.88580608,0.9999565146796747,152.95336727679634
8.894343168,1.0000910861123105,152.5289901247937
8.90288128,1.0002214027578062,152.10285579495567
8.911419392,1.000340602075803,151.67503612624444
8.919957504,1.0004421561423025,151.24577157477026
8.928495616,1.0005208361326103,150.81525609019593
8.937032704,1.0005724944239351,150.38384411673928
8.945570816,1.0005943193501905,149.95194874450047
8.954108928,1.0005848994127544,149.51989993790625
8.96264704,1.000544785272691,149.08817822779017
8.971184128,1.000475943809716,148.65711995533573
8.97972224,1.0003817874555678,148.2271472327585
8.988260352,1.0002674118977102,147.79853979258016
8.996798464,1.000138418936663,147.3714894127054
9.005336576,1.0000018143827905,146.9461526439876
9.013873664,0.9998646620756904,146.52264272745086
9.022411776,0.9997339467085304,146.10084203448469
9.030949888,0.9996169109230221,145.68073160006566
9.039488,0.9995195872839701,145.2619862915997
9.048026112,0.999447122222415,144.8443950788478
9.0565632,0.9994034664486928,144.42755512559904
9.065101312,0.9993907871357339,144.0111056422258
9.073639424,0.9994102846386689,143.59460678310143
9.082177536,0.9994607790601983,143.17764972231623
9.090714624,0.999539718848822,142.75983623448965
9.099252736,0.9996430678459689,142.34082277156074
9.107790848,0.999765511433914,141.92031061871373
9.11632896,0.9999005704085399,141.49811497365627
9.124867072,1.000041448301697,141.07404241686953
9.13340416,1.0001804464352835,140.64816267271203
9.141942272,1.0003105502587715,140.22047702689994
9.150480384,1.0004245927119333,139.79115890844676
9.159018496,1.0005168833000193,139.360499709676
9.167555584,1.000582195003966,138.9287704455893
9.176093696,1.0006173216018763,138.49632873273583
9.184631808,1.0006200640009493,138.06364317142223
9.19316992,1.0005901899724863,137.6311143244098
9.201708032,1.0005293200344219,137.1991594332821
9.21024512,1.0004403979963108,136.7681935514133
9.218783232,1.0003280761912803,136.33853564466355
9.227321344,1.000197998660806,135.910478422452
9.235859456,1.000057143853395,135.48418421401612
9.244396544,0.9999128196262206,135.05978450141686
9.252934656,0.9997723642368793,134.6372596828563
9.261472768,0.9996434848049353,134.21650681794074
9.27001088,0.9995327544506276,133.79734075580464
9.278548992,0.9994462391299493,133.37953116468594
9.28708608,0.9993883959299448,132.96265634159636
9.295624192,0.9993625547590426,132.54635455670942
9.304162304,0.9993700213409944,132.13019570250728
9.312700416,0.9994105990712263,131.7137487707195
9.321237504,0.9994821918034206,131.2965577830464
9.329775616,0.9995812429516748,130.87823879051987
9.338313728,0.9997026433233795,130.4585103307705
9.34685184,0.9998401142057473,130.03706122860476
9.355389952,0.9999863047841655,129.61375699041636
9.36392704,1.0001336906471403,129.1885192494057
9.372465152,1.0002746008992538,128.76137897521565
9.381003264,1.0004014506744978,128.3324706406655
9.389541376,1.0005076145912364,127.9020073316456
9.398078464,1.0005876991251503,127.47032418470015
9.406616576,1.0006370719520237,127.03781220025209
9.415154688,1.0006531643949657,126.60481193443037
