freq,mag,phase
6.0,1.0001259327289411,-125.55134307895761
6.030418432,1.0001222938240761,-127.16166120174545
6.060836352,1.0001171307068764,-128.77183298696272
6.091254784,1.0001097353645756,-130.3818656642077
6.121673216,1.0001002509088164,-131.99169210386603
6.152091136,1.0000887434407177,-133.60131187211795
6.182509568,1.0000754850669187,-135.21067664506202
6.212928,1.0000608168553036,-136.8197287145396
6.24334592,1.0000449411825145,-138.42850369712798
6.273764352,1.0000282162490541,-140.0369236196092
6.304182272,1.000011060964077,-141.64494708893795
6.334600704,0.9999936565343052,-143.25264842998712
6.365019136,0.9999764958664747,-144.85992374501845
6.395437056,0.9999599299967189,-146.46678670030008
6.425855488,0.9999441919598725,-148.073269536428
6.45627392,0.9999297271213238,-149.67929404273858
6.48669184,0.9999166375299456,-151.2848842225006
6.517110272,0.9999055696358026,-152.8900438720572
6.547528704,0.9998963682571436,-154.49478033511127
6.577946624,0.9998894482252657,-156.0991201229683
6.608365056,0.9998849369638012,-157.7029954452188
6.638783488,0.9998829238916396,-159.30647346151068
6.669201408,0.9998834204334849,-160.90953424045574
6.69961984,0.9998863387456335,-162.51217302409574
6.730038272,0.9998919718460363,-164.11442308063616
6.760456192,0.9998997022280233,-165.71628911955554
6.790874624,0.9999097696359872,-167.31775394744164
6.821292544,0.9999219736436333,-168.9188308088453
6.851710976,0.9999358709397983,-170.51954526640955
6.882129408,0.9999513100447839,-172.11987649836882
6.912547328,0.9999678904139324,-173.71981906391775
6.94296576,0.9999853600005079,-175.31938244184863
6.973384192,1.000003396263539,-176.9185395189677
7.003802112,1.000021592136741,-178.51732072284162
7.034220544,1.0000394695172945,179.88433287194496
7.064638976,1.000056928504724,178.28642969861465
7.095056896,1.0000733016466754,176.68892184843733
7.125475328,1.0000883152879814,175.09191055480414
7.15589376,1.0001019292373108,173.495394552172
7.18631168,1.0001135133604124,171.89936532952044
7.216730112,1.0001231454827368,170.30390177583993
7.247148544,1.0001302542018589,168.70899769920214
7.277566464,1.0001350011236816,167.114693331576
7.307984896,1.0001370575863484,165.52101319614556
7.338402816,1.0001366473998845,163.9279987246831
7.368821248,1.000133518572413,162.3356546221434
7.39923968,1.0001276924276192,160.74403555464374
7.4296576,1.000119497727159,159.15317775408963
7.460076032,1.0001088658463566,157.56309069646002
7.490494464,1.0000965127894614,155.97381357830403
7.520912384,1.0000818845786903,154.38534347592832
7.551330816,1.0000658317005071,152.7977443293485
7.581749248,1.0000484724679528,151.21099556838342
7.612167168,1.0000303300265352,149.62514756908868
7.6425856,1.0000115742424192,148.04021189108522
7.673004032,0.9999927343874088,146.45617495455258
7.703421952,0.9999741678237306,144.87303853311641
7.733840384,0.9999561422371509,143.29080483954212
7.764258304,0.9999391795101306,141.70951823819314
7.794676736,0.9999234952133821,140.12913471175153
7.825095168,0.9999096008268334,138.54964048187213
7.855513088,0.9998976332719203,136.9710367164807
7.88593152,0.9998879158962544,135.3933371142172
7.916349952,0.9998805412206773,133.81648282831625
7.946767872,0.9998758011376052,132.24049479991018
7.977186304,0.9998738206012984,130.66532225581406
8.007604736,0.9998745373280623,129.09097494309907
8.038022656,0.999877983206769,127.51743021693268
8.068441088,0.9998843148394299,125.94463679023663
8.09885952,0.9998929802133496,124.37262223929517
8.12927744,0.9999041063921265,122.8012996862349
8.159695872,0.9999175439415001,121.23074067197376
8.190114304,0.9999328690547015,119.66086579977281
8.220532224,0.9999496972248323,118.0916857557318
8.250950656,0.999967827686288,116.52320549928287
8.281368576,0.9999869520840282,114.95536505338252
8.311787008,1.0000065834394725,113.3881904060232
8.34220544,1.000026159937887,111.82169881669277
8.37262336,1.0000457121095874,110.25586193238065
8.403041792,1.0000642952908319,108.69067997181101
8.433460224,1.0000820504413677,107.12618721254145
8.463878144,1.0000982159669056,105.56238879009918
8.494296576,1.0001126321295228,103.99925903726523
8.524715008,1.0001248786252075,102.43683846410507
8.555132928,1.0001348210919265,100.87515240499086
8.58555136,1.0001421645777788,99.3142155183233
8.615969792,1.0001467869835394,97.75403440503905
8.646387712,1.000148481032559,96.19462242019533
8.676805632,1.0001473684050546,94.63604975839854
8.707224576,1.0001433215210078,93.07829310394332
8.737642496,1.0001364959327768,91.52138446103726
8.768060416,1.0001269025432558,89.96533295293654
8.79847936,1.000114852217551,88.41018726326945
8.82889728,1.0001004377821843,86.85592266632231
8.8593152,1.000084103003637,85.30258532957914
8.889734144,1.0000660715884775,83.7501627579518
8.920152064,1.000046822635443,82.1986965297493
8.950569984,1.0000265344783896,80.6481620151121
8.980988928,1.000005844040784,79.09856063801234
9.011406848,0.9999850219701449,77.5499169813252
9.041824768,0.9999646239366923,76.00218687076827
9.072243712,0.9999450308992619,74.45540229064976
9.102661632,0.9999264906892221,72.90950267297501
9.133079552,0.9999096312084699,71.36452091065689
9.163498496,0.999894669151756,69.8204088289786
9.193916416,0.999881986684311,68.2771376036165
9.224334336,0.9998718505130526,66.73471401424527
9.25475328,0.9998644095622503,65.19304851991521
9.2851712,0.9998598867917213,63.65218296787881
9.31558912,0.9998583895444508,62.112037587985256
9.346008064,0.9998599810691087,60.572614193247595
9.376425984,0.9998646557690187,59.03383422401117
9.406843904,0.9998722261172653,57.495706272046334
9.437262848,0.9998826803058033,55.95819182724633
9.467680768,0.9998957753779997,54.421243058383325
9.498098688,0.999911266232098,52.88484258326808
9.528516608,0.9999287034222736,51.34895848148058
9.558935552,0.9999479534718425,49.813558011716815
9.589353472,0.9999683853123553,48.27864227020782
9.619771392,0.9999898565076747,46.74418300624936
9.650190336,1.000011809393353,45.21015396894513
9.680608256,1.0000337176813352,43.676560292716424
9.711026176,1.0000550917450544,42.14339356378819
9.74144512,1.0000756620572258,40.610643313668014
9.77186304,1.0000948862218906,39.078291641495575
9.80228096,1.0001123610104095,37.54638056900213
9.832699904,1.0001277363804175,36.01488461791883
9.863117824,1.0001406637225978,34.48381584149242
9.893535744,1.00015089441507,32.95319705722923
9.923954688,1.000158083019886,31.42302139584327
9.954372608,1.000162198763197,29.89332792097307
9.984790528,1.000163117792189,28.364122747979636
10.015209472,1.0001607566337243,26.83541611694036
10.045627392,1.0001551514813307,25.30723435298428
10.076045312,1.000146355959784,23.779587821882927
10.106464256,1.0001346484630376,22.252495792911624
10.136882176,1.0001202455739941,20.725958294727075
10.167300096,1.0001031517209038,19.1999967322622
10.19771904,1.000084062236897,17.67462136190973
10.22813696,1.0000632499123017,16.149820874991484
10.25855488,1.000041206130234,14.625634290411588
10.288973824,1.0000181192621558,13.102022811345151
10.319391744,0.9999947363946282,11.57898975560295
10.349809664,0.9999713901033325,10.05651698336557
10.380228608,0.9999485924587711,8.534629621449985
10.410646528,0.9999268470241912,7.013271746613399
10.441064448,0.9999067048166512,5.492440246124236
10.471483392,0.9998884178300134,3.972095207970572
10.501901312,0.9998725581999561,2.452227223119144
10.532319232,0.9998592095350314,0.9327725279990507
10.562737152,0.9998489128040958,-0.5862779159596091
10.593156096,0.9998418300545723,-2.1049761252549186
10.623574016,0.9998381851278567,-3.6233452816038185
10.653991936,0.9998379642387298,-5.141420246804813
10.68441088,0.9998411771439741,-6.659274211733556
10.7148288,0.9998480043078631,-8.176921202687904
10.74524672,0.999857943124584,-9.694418949989293
10.775665664,0.9998712030404672,-11.211772523946255
10.806083584,0.9998872856908665,-12.729081155313814
10.836501504,0.9999058835971166,-14.246335102724057
10.866920448,0.9999268544696531,-15.76354907847344
10.897338368,0.9999494574578298,-17.28080513633231
10.927756288,0.9999733894193155,-18.798086862336486
10.958175232,0.9999981778930631,-20.315464276308287
10.988593152,1.000023259862383,-21.832902764107217
11.019011072,1.0000481157203078,-23.350434735929348
11.049430016,1.0000722999892886,-24.868078551495955
11.079847936,1.0000952314768734,-26.385825228603416
11.110265856,1.000116449918299,-27.903681248656564
11.1406848,1.0001354477967694,-29.42165360933356
11.17110272,1.0001519125990916,-30.939733084952746
11.20152064,1.0001653916150164,-32.457878447080724
11.231939584,1.0001756379837294,-33.976132172339085
11.262357504,1.0001823893313349,-35.494443603776226
11.292775424,1.0001855371197568,-37.012805964990854
11.323194368,1.0001847712247083,-38.531183000541425
11.353612288,1.000180377781269,-40.04957946456875
11.384030208,1.0001723560472202,-41.56795716129126
11.414449152,1.0001606504973546,-43.086321621295546
11.444867072,1.0001456834760285,-44.60462980706453
11.475284992,1.000127731866344,-46.12289989671165
11.505702912,1.0001068779470859,-47.64107634235801
11.536121856,1.0000839732371583,-49.15919072059659
11.566539776,1.0000592082612152,-50.67722069639055
11.596957696,1.0000331305493364,-52.19516666492648
11.62737664,1.0000062647992976,-53.71302988742755
11.65779456,0.9999791671775481,-55.23081384090473
11.68821248,0.9999524678577659,-56.748532675867196
11.718631424,0.9999267034943868,-58.266215022549915
11.749049344,0.9999023756951384,-59.78386124220062
11.779467264,0.9998799538899267,-61.301507528475085
11.809886208,0.9998600348384433,-62.81918720960824
11.840304128,0.9998430332694735,-64.33693416273954
11.870722048,0.9998292788710946,-65.85476359715628
11.901140992,0.9998191563617702,-67.37274502701564
11.931558912,0.999812768048355,-68.8908993422919
11.961976832,0.9998103887110964,-70.40928302886924
11.992395776,0.9998120890293701,-71.92793455260113
12.022813696,0.9998177838541445,-73.4468824849274
12.053231616,0.9998275910848022,-74.96619636497557
12.08365056,0.9998410827374616,-76.48592205874083
12.11406848,0.9998581390836401,-78.00608719316062
12.1444864,0.9998784284804945,-79.52671343899496
12.174905344,0.9999015393651873,-81.04787341862149
12.205323264,0.9999269705643652,-82.5695864174426
12.235741184,0.9999542765809962,-84.09186651817075
12.266160128,0.9999828655674743,-85.6147696159536
12.296578048,1.0000121849290688,-87.13828597091626
12.326995968,1.0000415839785495,-88.66243271649607
12.357414912,1.000070547387695,-90.18723598662812
12.387832832,1.0000982656989175,-91.71268082552011
12.418250752,1.00012426318227,-93.23878652648455
12.448669696,1.0001481138977315,-94.76552428651898
12.479087616,1.0001691918360238,-96.292903730098
12.509505536,1.0001870015045324,-97.82090082165776
12.539923456,1.0002011185582136,-99.34950755807851
12.5703424,1.0002113392510743,-100.87867545828782
12.60076032,1.0002173368958283,-102.40840880608593
12.63117824,1.000219007085388,-103.93867493540583
12.661597184,1.0002162199030349,-105.46943352427118
12.692015104,1.0002089773263652,-107.00065761524087
12.722433024,1.0001974453544937,-108.53234308505345
12.752851968,1.0001819061555886,-110.06445113593708
12.783269888,1.0001624417745754,-111.59692843791233
12.813687808,1.000139606048338,-113.1298109779244
12.844106752,1.0001137294598161,-114.66302485584835
12.874524672,1.0000853641250174,-116.19656959920123
12.904942592,1.0000551276514345,-117.73045732773545
12.935361536,1.0000235384872516,-119.26463548766517
12.965779456,0.9999913857033352,-120.79915018759282
12.996197376,0.9999591883619898,-122.33397070584381
13.02661632,0.9999276392925096,-123.86912371363958
13.05703424,0.9998974181471453,-125.40461177536173
13.08745216,0.9998692231928487,-126.94048187313109
13.117871104,0.9998435779599862,-128.47669847426053
13.148289024,0.999821082462887,-130.0133552730562
13.178706944,0.99980218290209,-131.5504585778273
13.209125888,0.9997873870695271,-133.0880090943651
13.239543808,0.999776944109731,-134.6261141571978
13.269961728,0.9997712735501,-136.16477597358968
13.300380672,0.9997703768122592,-137.70403894978264
13.330798592,0.9997743652786837,-139.24396363856627
13.361216512,0.9997831966341387,-140.78457619602642
13.391635456,0.9997967903427706,-142.32593848990436
13.422053376,0.9998149042411492,-143.86808848988753
13.452471296,0.9998372005037471,-145.4110669620934
13.48289024,0.999863112593403,-146.95490456402015
13.51330816,0.9998924374478535,-148.4996369940917
13.54372608,0.999924303532103,-150.045308853305
13.574144,0.9999582496408338,-151.5919160788234
13.604562944,0.9999935573531762,-153.13950156344472
13.634980864,1.000029513713274,-154.6880491305212
13.665398784,1.0000653429102693,-156.23760831313007
13.695817728,1.0001003353008395,-157.78816064618064
13.726235648,1.0001337413326576,-159.3396768264626
13.756653568,1.0001648766972264,-160.8921658817653
13.787072512,1.000193155441166,-162.44560287857948
13.817490432,1.0002177535223506,-163.99997670482824
13.847908352,1.0002382600827073,-165.5552472459052
13.878327296,1.0002542203052487,-167.11138977967445
13.908745216,1.0002651616102536,-168.66836015429948
13.939163136,1.0002709130260719,-170.2261105899329
13.96958208,1.0002711154927066,-171.78460637430868
14.0,1.0002659481171796,-173.3438062528375
