freq,mag,phase
6.0,1.000206076984317,-19.360173186782507
6.016161792,1.000177440413662,-19.905107424224486
6.032323072,1.000141158458949,-20.449657882479244
6.048484864,1.0000988438337324,-20.993821221860824
6.064646656,1.000052169062511,-21.537489566188942
6.080807936,1.0000031181230615,-22.080634148570823
6.096969728,0.9999537279000388,-22.623241844744307
6.11313152,0.9999062436833975,-23.165333847720163
6.1292928,0.9998621628799782,-23.706887334478775
6.145454592,0.999823874840521,-24.248017208560075
6.161616384,0.9997926101790695,-24.788835323628007
6.177777664,0.999769844940048,-25.3292644545037
6.193939456,0.9997564070827635,-25.869568902710636
6.210101248,0.9997529031145969,-26.409842847485333
6.226262528,0.9997597274454477,-26.95014099256617
6.24242432,0.9997764072657324,-27.490632584328743
6.258586112,0.9998021064944165,-28.031415204997458
6.274747392,0.999836179459401,-28.572580413647003
6.290909184,0.9998767955552932,-29.114184701281054
6.307070464,0.9999225034136285,-29.656385532249846
6.323232256,0.9999711974190496,-30.199181154945713
6.339394048,1.0000210737352764,-30.74256423808003
6.355555328,1.0000700073007882,-31.286594469197183
6.37171712,1.0001159827446964,-31.831201113760798
6.387878912,1.0001569875938912,-32.376380825505734
6.404040192,1.0001912832797661,-32.92204713400265
6.420201984,1.0002175438967882,-33.468103641594574
6.436363776,1.0002347459946808,-34.0144343266612
6.452525056,1.0002419554657234,-34.560976665012696
6.468686848,1.0002387909294619,-35.10758330737334
6.48484864,1.0002257646948138,-35.654129613844326
6.50100992,1.0002030609427168,-36.20051227050989
6.517171712,1.000171665263262,-36.74658121279386
6.533333504,1.0001331468411112,-37.29232111585664
6.549494784,1.0000888855204173,-37.83759504341911
6.565656576,1.0000404914928442,-38.38239148643663
6.581818368,0.999990417275984,-38.92664213091515
6.597979648,0.9999404883382247,-39.47033539802541
6.61414144,0.9998927759794733,-40.01350523966388
6.630303232,0.9998494045532474,-40.55618340490578
6.646464512,0.9998120239915937,-41.098416636899074
6.662626304,0.9997824577976157,-41.64026770243922
6.678788096,0.9997616728232231,-42.18190149375942
6.694949376,0.9997505988518681,-42.7233811652343
6.711111168,0.9997498055960257,-43.26480329885982
6.72727296,0.9997592572760168,-43.806356576213574
6.74343424,0.9997787676580312,-44.34811597657733
6.759596032,0.9998072281348975,-44.89015923721839
6.775757824,0.9998436292377197,-45.43262694081134
6.791919104,0.9998865858768333,-45.975655166697145
6.808080896,0.9999340340751472,-46.51918623825302
6.824242176,0.9999841516840448,-47.06335035085104
6.840403968,1.0000349183295087,-47.608142421248836
6.85656576,1.0000841241894147,-48.15359413217837
6.87272704,1.0001296954406085,-48.699625747086024
6.888888832,1.0001699485421476,-49.2461847659346
6.905050624,1.0002027707019194,-49.79324881416599
6.921211904,1.0002273528331296,-50.340655143006195
6.937373696,1.0002421460180349,-50.88834630272942
6.953535488,1.0002467226198506,-51.436239032770665
6.969696768,1.0002410151824268,-51.98411442391931
6.98585856,1.0002251024298183,-52.53190498356843
7.002020352,1.0001997435415346,-53.079515093708245
7.018181632,1.0001657258490844,-53.62683918959389
7.034343424,1.0001248396149574,-54.17370112838899
7.050505216,1.0000782703665292,-54.720148272810206
7.066666496,1.0000285370307358,-55.266044619123
7.082828288,0.9999773046415809,-55.81140908021807
7.09899008,0.9999268680265353,-56.35619029471155
7.11515136,0.9998791535881398,-56.900454008606175
7.131313152,0.9998364538720321,-57.444212764545746
7.147474944,0.9998002665821514,-57.98756617124605
7.163636224,0.9997722804282414,-58.53055883097396
7.179798016,0.9997535558583825,-59.07334045946993
7.195959808,0.9997449046607069,-59.615963562108384
7.212121088,0.9997467885245154,-60.15863359634143
7.22828288,0.9997591952853705,-60.701386533172005
7.244444672,0.9997814533668269,-61.2443791921943
7.260605952,0.9998125302560011,-61.78776144610656
7.276767744,0.9998515641110013,-62.33154501057074
7.292929536,0.9998966872299931,-62.8758866936125
7.309090816,0.9999459466357145,-63.42083907768386
7.325252608,0.9999975162167369,-63.96639355548547
7.341413888,1.0000487973763446,-64.51262151205141
7.35757568,1.0000983565530956,-65.05944572564063
7.373737472,1.0001435289773468,-65.60691580080224
7.389898752,1.0001828720123036,-66.15489011133867
7.406060544,1.0002143190225739,-66.70332562676275
7.422222336,1.0002368639295307,-67.25213100470626
7.438383616,1.0002494237919988,-67.80115465943229
7.454545408,1.0002514369048587,-68.35035026861445
7.4707072,1.0002428663465799,-68.89954093430718
7.48686848,1.0002241634663456,-69.44855237410403
7.503030272,1.000195917321866,-69.99741660446574
7.519192064,1.0001593369585027,-70.54592134547569
7.535353344,1.0001159789087504,-71.09395710849296
7.551515136,1.0000675694142054,-71.64147501672258
7.567676928,1.0000162623388127,-72.1885276868302
7.583838208,0.9999639952694156,-72.73496533322633
7.6,0.9999129630192921,-73.28084860674083
7.616161792,0.9998655447030158,-73.82615377741324
7.632323072,0.9998234985592007,-74.37102471609568
7.648484864,0.9997884446665457,-74.91545259913092
7.664646656,0.9997622437285635,-75.4595732843307
7.680807936,0.999745771507738,-76.00346784860464
7.696969728,0.9997396672446701,-76.54726932373717
7.71313152,0.9997443333663082,-77.09109797876056
7.7292928,0.9997594294638854,-77.63509605692231
7.745454592,0.9997845552057022,-78.17933141022274
7.761616384,0.999818597177291,-78.72398522585594
7.777777664,0.9998601481301004,-79.26912720055306
7.793939456,0.9999074145235931,-79.81481285400888
7.810101248,0.9999584677655384,-80.36113832439048
7.826262528,1.0000112765930846,-80.90806785192412
7.84242432,1.0000635553222381,-81.45570236404566
7.858586112,1.0001130755200458,-82.00395324775381
7.874747392,1.0001579656522188,-82.55278860734363
7.890909184,1.0001960798132559,-83.10215441397195
7.907070464,1.000226223851702,-83.65198189906266
7.923232256,1.0002465863449095,-84.2021153677582
7.939394048,1.000256755946496,-84.75250271137148
7.955555328,1.000256128153037,-85.30298520836571
7.97171712,1.00024473358988,-85.85342249398145
7.987878912,1.0002231007881972,-86.40366571598443
8.004040192,1.0001919314614676,-86.95370506419991
8.020201984,1.0001526971484953,-87.50335247036396
8.036363776,1.00010695148295,-88.05254486022619
8.052525056,1.000056505169782,-88.60118211568168
8.068686848,1.000003531723124,-89.14929495238349
8.08484864,0.9999502843347738,-89.69679293424701
8.10100992,0.999898897794908,-90.2437342106511
8.117171712,0.9998514685279718,-90.79013493952392
8.133333504,0.9998102247620302,-91.33602907759062
8.149494784,0.9997765637275557,-91.88152790569465
8.165656576,0.9997521896639601,-92.42673859827882
8.181818368,0.9997379509005624,-92.97173406538087
8.197979648,0.9997343521227715,-93.51666818845149
8.21414144,0.9997418668591602,-94.06168472778724
8.230303232,0.9997600725639059,-94.60686087634973
8.246464512,0.999788136427615,-95.15236310067056
8.262626304,0.9998249089883061,-95.69825315775894
8.278788096,0.9998690137655413,-96.24467615349293
8.294949376,0.9999186552561175,-96.79167808501815
8.311111168,0.9999714938099655,-97.33934908614877
8.32727296,1.000025474054317,-97.88763032721108
8.34343424,1.0000784229428845,-98.43662601054541
8.359596032,1.000128207434447,-98.98624036772519
8.375757824,1.0001723811971452,-99.53644482484758
8.391919104,1.0002097056929142,-100.0871857758428
8.408080896,1.0002379897368874,-100.63833996720581
8.424242176,1.000256442958063,-101.18981765387873
8.440403968,1.0002640596600152,-101.74147527624514
8.45656576,1.0002606534271608,-102.29319158269423
8.47272704,1.0002463184652208,-102.84486371900589
8.488888832,1.0002215951687663,-103.39633933281618
8.505050624,1.0001875850599111,-103.94750799434561
8.521211904,1.000145600929648,-104.49828227135333
8.537373696,1.0000973812466751,-105.04854630537805
8.553535488,1.0000448661834194,-105.59824020530789
8.569696768,0.999990435351627,-106.14737224618591
8.58585856,0.9999360975579682,-106.69588725014736
8.60201984,0.9998843069888861,-107.24385067852263
8.618181632,0.9998371089260878,-107.79123179696236
8.634343424,0.9997967335593189,-108.33814040346563
8.650505216,0.9997644297059197,-108.8846637583808
8.666667008,0.9997418864334935,-109.43088738015936
8.682827776,0.9997300205046015,-109.97696278723144
8.698989568,0.9997292609829223,-110.5229789317592
8.71515136,0.9997395658740548,-111.06910677398395
8.731313152,0.9997608651355179,-111.61544146772856
8.747474944,0.9997919242282867,-112.16210511544612
8.763636736,0.9998316621235857,-112.70925042954829
8.779797504,0.9998784181673223,-113.25692478383908
8.795959296,0.9999301722560436,-113.80519670344094
8.812121088,0.9999848306197481,-114.35413303271386
8.82828288,1.0000401377278407,-114.90375629111008
8.844444672,1.0000938320431083,-115.4540607058755
8.860606464,1.0001436214595978,-116.00500464318968
8.876767232,1.0001874040636263,-116.55656263650113
8.892929024,1.0002234170302418,-117.10859037431955
8.909090816,1.0002500222722959,-117.66104688000581
8.925252608,1.0002662682510588,-118.21374880302017
8.9414144,1.0002714115870404,-118.76667184199647
8.957576192,1.0002651692195088,-119.31959955299398
8.97373696,1.00024772302719,-119.87243352389616
8.989898752,1.0002199085792614,-120.42501855913707
9.006060544,1.0001828358552844,-120.97730150973915
9.022222336,1.00013800456759,-121.52911101261624
9.038384128,1.0000872495074293,-122.08040465927269
9.05454592,1.0000327373184974,-122.63110579739246
9.070706688,0.9999766441763088,-123.18119525457047
9.08686848,0.9999214207281798,-123.73068661034196
9.103030272,0.9998692307357169,-124.2795575719355
9.119192064,0.9998224448434949,-124.8278714723508
9.135353856,0.9997827527341531,-125.3757404002701
9.151515648,0.9997519896915975,-125.92321444089892
9.167676416,0.9997314383041777,-126.47041503526015
9.183838208,0.9997219825728391,-127.01748117114549
9.2,0.999724014819303,-127.56450641866543
9.216161792,0.9997374835921333,-128.11170156797917
9.232323584,0.9997617778212319,-128.65911260235862
9.248484352,0.9997960514629649,-129.2069359018683
9.264646144,0.999838796313594,-129.75520308152028
9.280807936,0.9998881823999176,-130.30406882590293
9.296969728,0.9999422962592982,-130.8535701826144
9.31313152,0.999998779986763,-131.4037494593596
9.329293312,1.0000554326348985,-131.95460169935697
9.34545408,1.0001098313080659,-132.50618466225976
9.361615872,1.000159597436656,-133.0583975774601
9.377777664,1.000202806222775,-133.61118720138487
9.393939456,1.0002375770679535,-134.16448088893694
9.410101248,1.0002623948365845,-134.71815755494094
9.42626304,1.0002763645213115,-135.27207790814387
9.442423808,1.000278748118949,-135.82615299565182
9.4585856,1.0002695020403705,-136.38021976153163
9.474747392,1.0002489363804064,-136.93414102222886
9.490909184,1.0002179013775119,-137.48779906031754
9.507070976,1.0001776975303296,-138.04107012230307
9.523232768,1.000130018920249,-138.59385226425871
9.539393536,1.0000766792671985,-139.146099248649
9.555555328,1.0000200541333935,-139.69774072810557
9.57171712,0.9999623377987015,-140.2487038670529
9.587878912,0.9999060969381656,-140.79905863771987
9.604040704,0.999853572609564,-141.3487911109499
9.620202496,0.999807033988093,-141.89798396857807
9.636363264,0.9997683046048786,-142.44668417743316
9.652525056,0.9997391698694071,-142.99504714012227
9.668686848,0.9997207286493354,-143.54313558396186
9.68484864,0.999713758875214,-144.09112547617974
9.701010432,0.9997187596723512,-144.6390869376062
9.717172224,0.9997353904079624,-145.18725756079127
9.733332992,0.9997630384962153,-145.73568113217794
9.749494784,0.9998004730466055,-146.2845383317609
9.765656576,0.9998462516439228,-146.83391046570915
9.781818368,0.9998984817956666,-147.3838637956317
9.79798016,0.9999550019831468,-147.93451024610582
9.814140928,1.000013453276199,-148.48586120054895
9.83030272,1.0000713668659464,-149.0379178186735
9.846464512,1.000126440420418,-149.59067706984672
9.862626304,1.0001762606680318,-150.1440692167697
9.878788096,1.0002187885091252,-150.69804220109685
9.894949888,1.0002522736762522,-151.25250684735698
9.911110656,1.0002752108605413,-151.8073299010002
9.927272448,1.0002867267487774,-152.36237495908856
9.94343424,1.0002863967542177,-152.91753559976488
9.959596032,1.0002739483378065,-153.47264085328797
9.975757824,1.0002500942446524,-154.02757629624176
9.991919616,1.0002157226973665,-154.5821935267197
10.008080384,1.0001723244854006,-155.13641571249852
10.024242176,1.0001215673200512,-155.69009014738938
10.040403968,1.0000655712899962,-156.243164091702
10.05656576,1.000006681850842,-156.79561252526636
10.072727552,0.999947399540058,-157.34737968046218
10.088889344,0.9998901462279479,-157.8984990402153
10.105050112,0.9998372478979765,-158.44901425664943
10.121211904,0.9997910179859699,-158.99895909726314
10.137373696,0.9997533735374411,-159.548435129157
10.153535488,0.9997258163229993,-160.09755491320342
10.16969728,0.9997096125367458,-160.6464466286782
10.185859072,0.9997054302736091,-161.19525467206668
10.20201984,0.9997134366268471,-161.74409439255592
10.218181632,0.9997333042803156,-162.29310434611722
10.234343424,0.9997643359749024,-162.84247461546406
10.250505216,0.9998053006708272,-163.39229645705456
10.266667008,0.9998542902455306,-163.94265006301106
10.282827776,0.9999094991814503,-164.49363502228132
10.298989568,0.9999684408707202,-165.04532961149604
10.31515136,1.0000288546228902,-165.5977508852599
10.331313152,1.0000882000123266,-166.15091637462658
10.347474944,1.000143823840311,-166.70475946088882
10.363636736,1.0001937187146674,-167.25925956230574
10.379797504,1.0002354564431453,-167.81434454636303
10.395959296,1.000267654728176,-168.36987749251273
10.412121088,1.0002886029045923,-168.92575465381645
10.42828288,1.0002976712612361,-169.48183497806605
10.444444672,1.0002942853320027,-170.0379842113336
10.460606464,1.0002785505819345,-170.5940692168145
10.476767232,1.0002512631793272,-171.14990765027127
10.492929024,1.0002133323744,-171.7054054719412
10.509090816,1.0001664844975295,-172.26041831929737
10.525252608,1.0001124830280228,-172.8148935182315
10.5414144,1.0000537501255584,-173.36872089207753
10.557576192,0.9999925987846765,-173.92186085559553
10.57373696,0.9999316101407726,-174.47433521903838
10.589898752,0.9998732047094471,-175.02611087828805
10.606060544,0.9998199810612693,-175.57726000074973
10.622222336,0.9997740785355956,-176.12786767884413
10.638384128,0.9997374803694294,-176.67798290465282
10.65454592,0.9997116605316343,-177.2277917500572
10.670706688,0.9996978189359149,-177.77735560218966
10.68686848,0.9996964721561775,-178.32686213675748
10.703030272,0.999707680604889,-178.8764499953339
10.719192064,0.9997311180271995,-179.42626359425913
10.735353856,0.9997657190581721,-179.9764401821659
10.751515648,0.9998102058654228,179.47291195133175
10.767676416,0.9998625447226105,178.92165749208826
10.783838208,0.9999208116832515,178.36973388047883
10.8,0.9999823986255474,177.81708478140783
10.816161792,1.0000448737812586,177.26369140594505
10.832323584,1.0001055908510499,176.70951198294935
10.848484352,1.0001620207823196,176.1546712167716
10.864646144,1.0002118268431164,175.59916436262873
10.880807936,1.0002528928699157,175.04306787431884
10.896969728,1.000283583671632,174.48655638182254
10.91313152,1.0003024007009422,173.9297205308452
10.929293312,1.0003087261222674,173.3727082538535
10.94545408,1.0003021303216346,172.81566417923733
10.961615872,1.0002829914985512,172.2587489152638
10.977777664,1.0002520056492483,171.7020917713091
10.993939456,1.00021039898049,171.14583451524084
11.010101248,1.0001599960060072,170.5901060443967
11.02626304,1.0001026813511926,170.0349865888765
11.042423808,1.0000409784585966,169.48051109891162
11.0585856,0.9999773694994573,168.92677524030773
11.074747392,0.9999144717497451,168.37375402790065
11.090909184,0.9998549914428722,167.821439305736
11.107070976,0.9998013943738123,167.269750048755
11.123232768,0.9997559377793543,166.7186286441321
11.139393536,0.9997204607322624,166.1679706787071
11.155555328,0.9996964987937313,165.61764861724689
11.17171712,0.9996851361518714,165.0675074137225
11.187878912,0.9996868290246514,164.51741758021024
11.204040704,0.999701530767898,163.96719485887942
11.220202496,0.999728616971214,163.41671786782015
11.236363264,0.9997670572056091,162.86584986871375
11.252525056,0.9998153164631329,162.3144462780978
11.268686848,0.9998713936519468,161.76242389933026
11.28484864,0.9999329210581492,161.20965961846449
11.301010432,0.9999973369842665,160.6561622663338
11.317172224,1.0000620677944878,160.10187462650782
11.333332992,1.000124247862579,159.54683212505918
11.349494784,1.0001814597425969,158.99107754262138
11.365656576,1.0002312704997913,158.43465382028046
11.381818368,1.000271554065533,157.8776761097551
11.39798016,1.000300675994384,157.32027198390026
11.414140928,1.0003172771400528,156.76256677424698
11.43030272,1.000320663573028,156.20473536869156
11.446464512,1.0003107922428947,155.64690940163229
11.462626304,1.0002878461867861,155.08924418945247
11.478788096,1.0002528601177134,154.53189742458224
11.494949888,1.0002073553786734,153.9750120699914
11.511110656,1.0001529537854386,153.4186949752951
11.527272448,1.0000920762744112,152.86301768690635
11.54343424,1.000027172984078,152.30806216703016
11.559596032,0.9999609199009932,151.7538632176748
11.575757824,0.9998960953073374,151.20039809905973
11.591919616,0.9998354946924004,150.6476843246459
11.608080384,0.9997813838121095,150.095591265005
11.624242176,0.9997363761762107,149.54409579128253
11.640403968,0.9997020701772314,148.99303991946397
11.65656576,0.9996801906098056,148.44230643035513
11.672727552,0.9996714718749554,147.89173169430677
11.688889344,0.9996763523442418,147.34118368129316
11.705050112,0.9996947691799242,146.7904644457399
11.721211904,0.9997258967628726,146.23946497068073
11.737373696,0.9997685011994122,145.68799353820785
11.753535488,0.9998208454368553,145.13595533933741
11.76969728,0.9998808326239534,144.5832678547742
11.785859072,0.9999458885475672,144.02982159860068
11.80201984,1.0000133500197628,143.47557080367517
11.818181632,1.0000804331693944,142.92052550978033
11.834343424,1.000144403266275,142.36467890384122
11.850505216,1.0002025349815196,141.8081050635685
11.866667008,1.0002522482870277,141.25086775634605
11.882827776,1.0002918141788555,140.69310667768966
11.898989568,1.000319136842974,140.13492700801743
11.91515136,1.0003332784823025,139.5764715995002
11.931313152,1.0003337011345501,139.01791996658625
11.947474944,1.0003200393990879,138.45942493604014
11.963636736,1.0002931854769497,137.90112233884784
11.979797504,1.00025392979031,137.34322006877323
11.995959296,1.0002040239293317,136.7858147869406
12.012121088,1.0001453510084841,136.2290142937056
12.02828288,1.000080635049087,135.6729399310921
12.044444672,1.0000122471690773,135.11761325582407
12.060606464,0.9999431203994507,134.56307144188588
12.076767232,0.9998761575700909,134.0093392869484
12.092929024,0.9998140783250579,133.45633465845745
12.109090816,0.9997596192959246,132.90403015342437
12.125252608,0.9997149649291346,132.35226788908855
12.1414144,0.9996820782419381,131.80096671672672
12.157576192,0.9996622370364704,131.24995533820453
12.17373696,0.9996563999001942,130.6991048443668
12.189898752,0.999664853282737,130.14820007004118
12.206060544,0.9996873870360365,129.5971323320004
12.222222336,0.9997228496338364,129.04572085819342
12.238384128,0.9997699953017178,128.49380522407176
12.25454592,0.999826875762886,127.94126264225804
12.270706688,0.9998912394564848,127.3880213443549
12.28686848,0.9999601423888322,126.83395917074775
12.303030272,1.0000309804846452,126.27908865181271
12.319192064,1.0001006686732576,125.72335541689476
12.335353856,1.0001664426357046,125.1668280887057
12.351515648,1.0002255138176428,124.60955908175907
12.367676416,1.0002753819948782,124.05162236038106
12.383838208,1.0003138446176663,123.4931540473366
12.4,1.0003394498797713,122.93429781584358
12.416161792,1.0003509352043105,122.37518272549056
