freq,mag,phase
6.0,1.000027651071403,-136.9901148893074
6.005598208,1.0000499038038744,-137.2932668101964
6.011196416,1.0000694454533057,-137.596727910892
6.016795136,1.000085126612833,-137.90044501151337
6.022393344,1.0000962093629397,-138.2043335683263
6.027991552,1.0001018854151327,-138.50835366930852
6.03358976,1.0001018685246572,-138.8123845096597
6.03918848,1.0000961844447982,-139.1164228082525
6.044786688,1.0000852172840644,-139.4203570948215
6.050384896,1.0000694514676411,-139.7240868691847
6.055983104,1.000049917614745,-140.02756139995805
6.061581312,1.0000276203626781,-140.33077719887027
6.067180032,1.0000038061634595,-140.63367474536346
6.07277824,0.9999799994060302,-140.93624215132377
6.078376448,0.999957344546242,-141.2385359956153
6.083974656,0.9999372685485423,-141.54048815633422
6.089573376,0.999920901546777,-141.8422033057749
6.095171584,0.9999091919021751,-142.1437229978232
6.100769792,0.9999026526264747,-142.4451323859297
6.106368,0.9999017444722161,-142.74651662486048
6.111966208,0.9999066990471701,-143.0478892306097
6.117564928,0.9999169760181988,-143.3494091017662
6.123163136,0.9999321299700613,-143.651088884473
6.128761344,0.999951329930237,-143.95300153398162
6.134359552,0.9999733500659913,-144.2552078325663
6.13995776,0.9999970346831865,-144.55774267249095
6.14555648,1.0000210477216362,-144.86059283758863
6.151154688,1.0000440244584032,-145.16376665361136
6.156752896,1.0000646211826847,-145.4672665930237
6.162351104,1.0000816720735108,-145.7710211430147
6.167949824,1.000094215784801,-146.0749527552098
6.173548032,1.0001015106903806,-146.3790684333129
6.17914624,1.000103210817172,-146.68321117656077
6.184744448,1.0000991032170927,-146.98735786719797
6.190342656,1.0000896088132962,-147.29142818728343
6.195941376,1.0000749979446333,-147.59533293524757
6.201539584,1.000056308124888,-147.89899929194797
6.207137792,1.0000345816965497,-148.2023824577559
6.212736,1.0000109578659497,-148.5054844099841
6.21833472,0.9999868465041444,-148.80822727185344
6.223932928,0.9999635901856521,-149.11068135033054
6.229531136,0.9999425241447049,-149.41281102306195
6.235129344,0.9999248702230211,-149.7146903712757
6.240727552,0.9999116150225625,-150.01633597016578
6.246326272,0.9999034647003698,-150.3178678229945
6.25192448,0.9999009248120353,-150.61933247836458
6.257522688,0.9999041910351418,-150.92076738932437
6.263120896,0.9999129881164348,-151.2222958144558
6.268719616,0.9999269087151059,-151.5240027811361
6.274317824,0.9999451509172466,-151.82591811768262
6.279916032,0.9999666453034917,-152.12810283207975
6.28551424,0.9999901726897216,-152.43061601831766
6.291112448,1.000014336739039,-152.73345093446585
6.296711168,1.0000379084904665,-153.0366286159673
6.302309376,1.0000594012535395,-153.3401181642374
6.307907584,1.00007774252311,-153.64388740821545
6.313505792,1.0000917624028596,-153.94787656934818
6.319104512,1.000100661760902,-154.25200412112918
6.32470272,1.000104091848925,-154.5562348416133
6.330300928,1.0001016340751143,-154.86046835606638
6.335899136,1.0000936088004786,-155.16463861786997
6.341497344,1.000080330116474,-155.46866845472113
6.347096064,1.0000626552265661,-155.77249882772725
6.352694272,1.000041514263347,-156.0760403242627
6.35829248,1.0000181135505117,-156.37928096677751
6.363890688,0.9999938338797669,-156.68220055579508
6.369489408,0.9999700838449744,-156.98479845890648
6.375087616,0.9999480829331276,-157.28707147900772
6.380685824,0.9999291697710281,-157.5890787083928
6.386284032,0.9999144082900693,-157.89084672179837
6.39188224,0.9999046615422126,-158.19244928768734
6.39748096,0.999900430580087,-158.49394113624254
6.403079168,0.9999020708265605,-158.79543862433826
6.408677376,0.9999093504617789,-159.09697988537985
6.414275584,0.9999219323816902,-159.39867007990387
6.419873792,0.9999390979292909,-159.70059129154203
6.425472512,0.9999600064823753,-160.00273062823496
6.43107072,0.9999831215072302,-160.3052071660102
6.436668928,1.0000074177084703,-160.607993789696
6.442267136,1.0000315108279854,-160.91111197573616
6.447865856,1.000053951983622,-161.2145546654974
6.453464064,1.0000733929837453,-161.5182988061304
6.459062272,1.0000888861464994,-161.82226246865824
6.46466048,1.0000993883307638,-162.1264319326269
6.470258688,1.000104458392779,-162.43070732885224
6.475857408,1.0001037873297605,-162.73499241349003
6.481455616,1.0000972588184713,-163.0392417745774
6.487053824,1.0000854366487737,-163.34335974499646
6.492652032,1.0000687252508442,-163.64731019112762
6.498250752,1.0000483594724456,-163.95098689048874
6.50384896,1.0000253406362591,-164.2543463881842
6.509447168,1.0000010563773818,-164.55741412584115
6.515045376,0.999976812776362,-164.86011512214873
6.520643584,0.9999539300056921,-165.16252356457971
6.526242304,0.9999339428960579,-165.46461598924472
6.531840512,0.9999177705919525,-165.76647625518174
6.53743872,0.9999063538337826,-166.0681323936103
6.543036928,0.9999005662032154,-166.36968750966867
6.548635648,0.9999003713574894,-166.6712061842642
6.554233856,0.9999061647660001,-166.97272775725898
6.559832064,0.9999173188211813,-167.27439932812638
6.565430272,0.9999333373790611,-167.5762534274485
6.57102848,0.999953344934562,-167.87834632820247
6.5766272,0.9999761585062873,-168.1807419098209
6.582225408,1.0000004140408776,-168.48346042499026
6.587823616,1.0000248359688853,-168.78650037425933
6.593421824,1.0000480547420845,-169.08988952257613
6.599020544,1.000068632287473,-169.39355141503063
6.604618752,1.0000855653073017,-169.69749434071173
6.61021696,1.0000977158203288,-170.00163459330713
6.615815168,1.0001043459301349,-170.30590713663457
6.621413376,1.0001053749693778,-170.61022060091813
6.627012096,1.0001004771923425,-170.91451554371622
6.632610304,1.000089996791046,-171.21869933253674
6.638208512,1.0000745797970034,-171.52271114531675
6.64380672,1.0000551157297195,-171.82647861746
6.649404928,1.0000325510034542,-172.12996772719305
6.655003648,1.000008211747981,-172.43312902780275
6.660601856,0.9999836839251471,-172.73594787976316
6.666200064,0.9999602155496964,-173.03845050380815
6.671798272,0.9999389584861597,-173.3406247480359
6.677396992,0.9999214466725359,-173.64253552202163
6.6829952,0.9999086243512177,-173.94425326884638
6.688593408,0.9999010401046222,-174.24581435419435
6.694191616,0.9998992224698631,-174.54731045295378
6.699789824,0.9999032762210472,-174.84881906651015
6.705388544,0.9999130632090962,-175.1504393703147
6.710986752,0.9999278404322967,-175.45221595258602
6.71658496,0.9999468935355126,-175.75423117414505
6.722183168,0.9999691792507384,-176.0565193510749
6.727781888,0.9999934068476926,-176.35913524675388
6.733380096,1.0000180680754482,-176.66207541719007
6.738978304,1.0000419919425845,-176.96535920690704
6.744576512,1.0000636401037672,-177.26895491722695
6.75017472,1.0000817749946378,-177.5728126105323
6.75577344,1.0000955489012242,-177.87689653446844
6.761371648,1.0001038748887077,-178.18114705844945
6.766969856,1.0001065639607343,-178.4854472218869
6.772568064,1.000103294771087,-178.78975536985263
6.778166784,1.0000944576590192,-179.0939812837574
6.783764992,1.0000802288819683,-179.3980342181605
6.7893632,1.000061696987809,-179.70188977552166
6.794961408,1.0000397011972364,179.99456224887834
6.800559616,1.0000155870088105,179.69130456764339
6.806158336,0.999990806804274,179.3884147226547
6.811756544,0.9999666961075193,179.08585680249257
6.817354752,0.9999445909861525,178.78362851412174
6.82295296,0.9999256906773797,178.48163877955247
6.82855168,0.9999112770363028,178.17992374165064
6.834149888,0.9999019452817857,177.87836290520048
6.839748096,0.999898475421172,177.57688858128023
6.845346304,0.9999008474340989,177.27542143252808
6.850944512,0.9999090136839949,176.973879164468
6.856543232,0.9999225328803267,176.67218550590854
6.86214144,0.999940662270866,176.37029175656477
6.867739648,0.9999622239814805,176.0681276921236
6.873337856,0.9999861002570773,175.76564148175717
6.878936064,1.0000111311099196,175.46282416552253
6.884534784,1.0000355512685533,175.1596722294541
6.890132992,1.0000580285570293,174.85620962140018
6.8957312,1.0000775377254545,174.5524483314041
6.901329408,1.0000928548538268,174.24844082925324
6.906928128,1.0001028550928737,173.9442705235771
6.912526336,1.0001073053418785,173.64000683084208
6.918124544,1.0001057532559356,173.3356952151502
6.923722752,1.0000983483232133,173.03148381791016
6.92932096,1.0000854436156381,172.727404088233
6.93491968,1.0000680199878849,172.42352252383884
6.940517888,1.00004676408767,172.11991807747404
6.946116096,1.0000229783960328,171.81662889630007
6.951714304,0.9999979353225152,171.51365406495944
6.957313024,0.9999733656916804,171.21104757963508
6.962911232,0.9999503249890641,170.9087757128069
6.96850944,0.9999302843788649,170.6067917260308
6.974107648,0.9999143078846334,170.30505089090892
6.979705856,0.9999034299365467,170.00350500843857
6.985304576,0.9998981400505572,169.7020744034304
6.990902784,0.9998988453795492,169.40067708680593
6.996500992,0.999905411475731,169.09923918459606
7.0020992,0.9999176282253945,168.79766374288164
7.00769792,0.9999345322400908,168.49590448023756
7.013296128,0.9999553572825541,168.19386463054354
7.018894336,0.9999789758795599,167.89155250941988
7.024492544,1.0000038920537349,167.5888795005933
7.030090752,1.000028870252596,167.28589900140432
7.035689472,1.0000522378738308,166.9825539230067
7.04128768,1.0000728615785812,166.67892636661048
7.046885888,1.0000896293835733,166.37502655760173
7.052484096,1.0001014025222468,166.07096766925645
7.058082816,1.0001074422784537,165.7667613009999
7.063681024,1.0001076851133008,165.46252612997787
7.069279232,1.0001019085134688,165.15831188234824
7.07487744,1.0000904632788128,164.8542515010061
7.080475648,1.000074123598026,164.55036718738117
7.086074368,1.0000536653966392,164.2467426233759
7.091672576,1.0000302841254112,163.9434095142891
7.097270784,1.000005306861487,163.64042129793847
7.102868992,0.9999802304088772,163.33778465603888
7.108467712,0.999956403140822,163.03550025253958
7.11406592,0.9999352328237208,162.73350177344537
7.119664128,0.9999178333712472,162.43177084106486
7.125262336,0.9999053781405449,162.1302699126365
7.130860544,0.9998983126990741,161.8288842498554
7.136459264,0.999897302853066,161.52758772003506
7.142057472,0.9999021193739158,161.2262634377075
7.14765568,0.9999127701991516,160.9248143705031
7.153253888,0.9999286786898534,160.62320340871557
7.158852096,0.9999487130707362,160.32135205779116
7.164450816,0.9999717553860727,160.01919284615292
7.170049024,0.999996640863529,159.71671730201678
7.175647232,1.0000218208333291,159.41388710734827
7.18124544,1.000046033017547,159.11072646352903
7.18684416,1.0000679211770638,158.8072799057912
7.192442368,1.0000860176348843,158.5035294098124
7.198040576,1.0000992810165459,158.19957876502735
7.203638784,1.0001071219421322,157.89547921097142
7.209236992,1.0001091003709743,157.5913203279104
7.214835712,1.0001049549168404,157.2871795879162
7.22043392,1.0000951335962673,156.98313915265365
7.226032128,1.0000799426661429,156.6792790282079
7.231630336,1.000060354898436,156.3756393306402
7.237229056,1.0000375996317383,156.07233558646874
7.242827264,1.0000127602180886,155.76932307484734
7.248425472,0.9999873561942234,155.46667832382107
7.25402368,0.9999628880640133,155.16437277577182
7.259621888,0.9999405395493652,154.86239549200494
7.265220608,0.9999217948716538,154.56070918413315
7.270818816,0.999907683192377,154.25927115211792
7.276417024,0.9998989443065929,153.9579668188304
7.282015232,0.9998960452451021,153.65675745234438
7.287613952,0.999899362104469,153.35554838064826
7.29321216,0.9999083964358091,153.0542725539817
7.298810368,0.9999229644044646,152.75281517455915
7.304408576,0.999941968849953,152.45113666846711
7.310006784,0.9999645193471997,152.14918261567695
7.315605504,0.9999891594022715,151.84692406769653
7.321203712,1.0000147369836652,151.54430638354066
7.32680192,1.0000395741391488,151.24135176266927
7.332400128,1.0000623491016687,150.93805675937557
7.337998848,1.0000818232861588,150.63449141531015
7.343597056,1.000096656522624,150.33069031696593
7.349195264,1.000106304918954,150.0267289052696
7.354793472,1.0001099719835187,149.72269025854962
7.36039168,1.0001076638949722,149.4186291903898
7.3659904,1.000099278666808,149.11463535518726
7.371588608,1.0000855260064168,148.81082365128353
7.377186816,1.0000670021183085,148.50723133838125
7.382785024,1.0000447315168999,148.20392023540577
7.388383232,1.0000201567837956,147.90094516492246
7.393981952,0.9999945924332735,147.59830225472064
7.39958016,0.999969378616089,147.29601862590542
7.405178368,0.9999461692700635,146.99409443635992
7.410776576,0.9999261606531112,146.69244113597063
7.416375296,0.9999103683697934,146.39105788959318
7.421973504,0.9998999468939701,146.08984758661774
7.427571712,0.9998954495088552,145.78876821314086
7.43316992,0.9998969692963164,145.48769752946376
7.438768128,0.9999044658227182,145.1865520803823
7.444366848,0.9999175416872151,144.88530372484766
7.449965056,0.9999355229212108,144.58384089361144
7.455563264,0.999957413591164,144.2821035473451
7.461161472,0.9999818631798608,143.98004850445918
7.466760192,1.0000074241791852,143.67766854646186
7.4723584,1.000032852662446,143.37493343199023
7.477956608,1.000056497262784,143.0718659773091
7.483554816,1.000077232905967,142.76849736847498
7.489153024,1.0000937041924105,142.46487360727582
7.494751744,1.0001050188140808,142.16106472474968
7.500349952,1.0001104647695687,141.85715763544474
7.50594816,1.0001098714340904,141.55320782470866
7.511546368,1.0001032214165317,141.2493180266522
7.517145088,1.0000907116239997,140.94556757848855
7.522743296,1.0000733217765563,140.6420169039034
7.528341504,1.0000519627265454,140.3387521370991
7.533939712,1.0000277206949808,140.03580375045908
7.53953792,1.0000019982961206,139.73319718049098
7.54513664,0.9999763425828901,139.4309492427444
7.550734848,0.9999522509326306,139.12904496084894
7.556333056,0.9999309226873085,138.82746512388167
7.561931264,0.9999137954359895,138.5261718453141
7.567529984,0.9999015409868134,138.22506622469598
7.573128192,0.9998951272797539,137.92410507210232
7.5787264,0.999894957976412,137.62320681393263
7.584324608,0.9999007691274602,137.32225817028342
7.589922816,0.9999124961848396,137.02119599219992
7.595521536,0.9999292861919367,136.71993670618164
7.601119744,0.9999502516758887,136.41843928271012
7.606717952,0.9999743436468576,136.1166376442124
7.61231616,0.999999953478979,135.8144890487306
7.61791488,1.0000258754552762,135.51199928335947
7.623513088,1.0000503101166602,135.20915342370463
7.629111296,1.000072219171501,134.90602130680514
7.634709504,1.0000901668316353,134.6026012628064
7.640307712,1.0001030740080472,134.29899390956507
7.645906432,1.000110430755552,133.99524113980564
7.65150464,1.0001116103724843,133.69142269783887
7.657102848,1.0001064848601688,133.38765462020348
7.662701056,1.0000957226531686,133.0839843215521
7.668299264,1.0000794719453128,132.78051450476175
7.673897984,1.0000588449145036,132.47730468464164
7.679496192,1.0000351025661645,132.17441141904922
7.6850944,1.000009506521378,131.87186873344882
7.690692608,0.999983478718794,131.56966687244505
7.696291328,0.9999585231653412,131.26783929830682
7.701889536,0.9999360811725125,130.9663243068059
7.707487744,0.999917455641237,130.66511941882942
7.713085952,0.9999036003615077,130.364142187606
7.71868416,0.9998955687051339,130.06332140010045
7.72428288,0.9998934178011811,129.7625647983276
7.729881088,0.9998975960047798,129.46179433692734
7.735479296,0.999907753808458,129.1609446754068
7.741077504,0.9999232023438214,128.85994053033505
7.746676224,0.999943355616678,128.55868926128778
7.752274432,0.9999668562694716,128.25713826023213
7.75787264,0.9999924980576932,127.95527068456938
7.763470848,1.0000186223990384,127.65304532655206
7.769069056,1.0000438662611606,127.35046250627045
7.774667776,1.0000668202882323,127.04755703810223
7.780265984,1.0000862041826777,126.74437290432954
7.785864192,1.0001007078546804,126.44095724326257
7.7914624,1.0001098667578385,126.13738281327319
7.79706112,1.0001128013087992,125.83373774867908
7.802659328,1.000109519252923,125.5301007491261
7.808257536,1.0001002465922686,125.22655296589748
7.813855744,1.0000853240800507,124.9231699611277
7.819453952,1.0000657330261444,124.62005931264439
7.825052672,1.0000425085304872,124.31722273204744
7.83065088,1.0000169724000216,124.01474270590202
7.836249088,0.9999908272312258,123.71259728101867
7.841847296,0.9999652300144396,123.41084887710493
7.847446016,0.999941700435279,123.10943276328375
7.853044224,0.9999216889912638,122.8083220202467
7.858642432,0.9999062209924284,122.50745879719264
7.86424064,0.9998962232508277,122.2067948723959
7.869838848,0.9998924149596398,121.90621074429399
7.875437568,0.9998947547597339,121.60565627711745
7.881035776,0.9999032467478481,121.30504438877207
7.886633984,0.9999174771984155,121.00427163350304
7.892232192,0.9999365677168707,120.70325912931301
7.8978304,0.9999594107778037,120.4020029268825
7.90342912,0.9999847338457547,120.10039271368753
7.909027328,1.0000111297055765,119.79845027400447
7.914625536,1.0000370383243562,119.49615323846974
7.920223744,1.0000610191988692,119.19351675334234
7.925822464,1.0000817371991948,118.89057987869491
7.931420672,1.0000980463569982,118.58738721471303
7.93701888,1.0001088211528895,118.28402920445302
7.942617088,1.0001135789190108,117.98055877263414
7.948215296,1.0001120224802602,117.67708755896201
7.953814016,1.000104386311828,117.37367900534733
7.959412224,1.0000908683603713,117.07041058748594
7.965010432,1.0000723576288204,116.76738890528618
7.97060864,1.0000499175123738,116.46464685639394
7.97620736,1.0000247027777616,116.16223093583586
7.981805568,0.9999982348162767,115.86019547132551
7.987403776,0.9999720652908507,115.55851578118826
7.993001984,0.9999475801044158,115.25720403021192
7.998600192,0.9999262062720651,114.95620695390154
8.004198912,0.9999091980626378,114.65548186392296
8.00979712,0.999897493311012,114.35494562099332
8.015395328,0.9998918556243769,114.05455701953933
8.020993536,0.9998923839165972,113.75421271494456
8.026592256,0.9998992935654419,113.45381128291797
8.032190464,0.9999119793903558,113.1533190294851
8.037788672,0.999929897311081,112.85257620123501
8.04338688,0.9999520951227572,112.55160731894664
8.048985088,0.9999770601189801,112.25028629424722
8.054583808,1.000003465461732,111.94863294311305
8.060182016,1.0000298568596373,111.64662957369315
8.065780224,1.0000548851157314,111.34426180317509
8.071378432,1.0000768400059759,111.04161125959433
8.076977152,1.0000946414664804,110.73866457788603
8.08257536,1.0001072051142441,110.43553292394043
8.088173568,1.000113778228361,110.132265488058
8.093771776,1.0001140846133456,109.82896922195063
8.099369984,1.000108106781263,109.52571744172955
8.104968704,1.0000960797226839,109.2225778134666
8.110566912,1.0000787463444454,108.91966555405729
8.11616512,1.0000570745377764,108.6170249446472
8.121763328,1.0000323911701956,108.31470152965801
8.127361536,1.0000058716493747,108.0127521750887
8.132960256,0.9999791329933655,107.7111837202046
8.138558464,0.999953828910622,107.40996671478615
8.144156672,0.9999313383091241,107.10907878557262
8.14975488,0.9999127711286931,106.80850584526898
8.1553536,0.9998993352453178,106.50815702004736
8.160951808,0.9998917066393758,106.2079416737972
8.166550016,0.999890503954412,105.90781411319267
8.172148224,0.9998956253817711,105.6076543289605
8.177746432,0.9999068571961761,105.30738715379083
8.183345152,0.9999235683386459,105.00694754253703
8.18894336,0.9999447803899639,104.70625585303576
8.194541568,0.9999692684166545,104.40525206481414
8.200139776,0.9999957330524071,104.10392270281805
8.205738496,1.0000225792153923,103.80221119614843
8.211336704,1.0000483797522197,103.50015267932866
8.216934912,1.0000715167918204,103.19776708939351
8.22253312,1.0000907912314123,102.89510264872635
8.228131328,1.000105069285657,102.59221198032866
8.233730048,1.0001134631464985,102.2891682818955
8.239328256,1.0001156188181268,101.98606383717045
8.244926464,1.0001114172098102,101.68298115525005
