freq,mag,phase
6.0,0.999776248502756,-78.66178547370905
6.004287488,0.999738816063132,-78.86923929037275
6.008574464,0.9997166204870815,-79.07632590148543
6.012861952,0.9997113479687021,-79.28320449241752
6.017148928,0.9997235189141999,-79.49023716050802
6.021436416,0.999752530554429,-79.69759579292545
6.025723392,0.9997965143167269,-79.90542635595013
6.03001088,0.999853026079283,-80.1140582844278
6.034297856,0.9999183468067673,-80.32356886940542
6.038585344,0.9999889869910303,-80.53409156666856
6.04287232,1.0000605221643348,-80.74563692888425
6.047159808,1.0001286921623846,-80.95822682835593
6.051446784,1.0001892886356014,-81.17171448148935
6.055734272,1.0002386705867012,-81.38607002208587
6.060021248,1.000274010593047,-81.60104169486337
6.064308736,1.0002931469600647,-81.81644846334595
6.068595712,1.0002947214625035,-82.03208276626158
6.0728832,1.0002788950532038,-82.24758173515761
6.077170176,1.0002463090762888,-82.46282696448633
6.081457664,1.0001990595737402,-82.67749180242414
6.085745152,1.0001398213618422,-82.89149374190451
6.090032128,1.000072458921572,-83.10460019288573
6.094319616,1.0000004393193898,-83.31685695844315
6.098606592,0.9999285754921218,-83.52802674862514
6.10289408,0.9998609019471716,-83.73827416557982
6.107181056,0.999801712817519,-83.94764319711564
6.111468544,0.9997544603646663,-84.15631684916575
6.11575552,0.9997218615204293,-84.36447769010361
6.120043008,0.9997061500260217,-84.57230100132179
6.124329984,0.9997081792364413,-84.78002863971163
6.128617472,0.9997278225681208,-84.98799637017108
6.132904448,0.9997640744705186,-85.19634167877895
6.137191936,0.9998144481953645,-85.40538947362647
6.141478912,0.9998763819992206,-85.61522829901165
6.1457664,0.9999458398535322,-85.82604614582215
6.150053376,1.0000188660650438,-86.03791039638315
6.154340864,1.000090909065827,-86.2508026698
6.15862784,1.000157857108797,-86.46474048048596
6.162915328,1.0002154770576615,-86.67957546217494
6.167202816,1.0002605946488807,-86.89520194025535
6.171489792,1.00028999614047,-87.111394675875
6.17577728,1.0003022730503566,-87.32791221345562
6.180064256,1.0002965846986451,-87.54446600258103
6.184351744,1.0002732446313578,-87.76088591310274
6.18863872,1.000233515465824,-87.97693435999727
6.192926208,1.0001798871003018,-88.192301483086
6.197213184,1.0001154808168786,-88.40692383065836
6.201500672,1.0000442315144493,-88.62060168545139
6.205787648,0.9999703332435277,-88.83326144478482
6.210075136,0.999898102644669,-89.0449538337983
6.214362112,0.9998319425644896,-89.25566804764406
6.2186496,0.9997760983451589,-89.46561227204441
6.222936576,0.9997337523696314,-89.6748354439012
6.227224064,0.9997071971201604,-89.88364858423374
6.23151104,0.999698383497165,-90.09219788929784
6.235798528,0.9997079479842739,-90.30082711045583
6.240085504,0.9997352160022922,-90.50969454914933
6.244372992,0.9997782798100789,-90.7191262744081
6.24866048,0.9998349695096487,-90.92927751238432
6.252947456,0.9999018606267036,-91.14035034909546
6.257234944,0.9999748701330194,-91.35241279402454
6.26152192,1.0000495393035664,-91.56558338809648
6.265809408,1.0001215362484919,-91.77982888636234
6.270096384,1.0001865396220107,-91.995051393492
6.274383872,1.0002405053658037,-92.21116283750246
6.278670848,1.0002802957370418,-92.42796420159884
6.282958336,1.0003034503247066,-92.64527718799118
6.287245312,1.0003084894000553,-92.86280553449774
6.2915328,1.0002953497132554,-93.08032239985343
6.295819776,1.0002643606739614,-93.29751872446234
6.300107264,1.0002176564731218,-93.51423111918336
6.30439424,1.0001581508342627,-93.73023128966571
6.308681728,1.0000889806505484,-93.94537572665844
6.312968704,1.000014429607676,-94.15951013899387
6.317256192,0.9999391194107471,-94.37262568086055
6.321543168,0.9998675432590651,-94.58474730865981
6.325830656,0.9998037004673075,-94.79592164592691
6.330118144,0.9997517996013392,-95.00632036182985
6.33440512,0.9997149948870295,-95.21613534808415
6.338692608,0.9996950835134509,-95.42557381627589
6.342979584,0.9996937284690142,-95.63487129187942
6.347267072,0.999710723041643,-95.84428781677683
6.351554048,0.9997454520940586,-96.05411780540841
6.355841536,0.9997955450276779,-96.26457614951511
6.360128512,0.9998579772657872,-96.47588429050047
6.364416,0.9999293851629657,-96.68813041863628
6.368702976,1.0000052190319908,-96.90148620258941
6.372990464,1.000080825428086,-97.11594801241301
6.37727744,1.0001521013118182,-97.33141326401008
6.381564928,1.0002142525258728,-97.54788540008207
6.385851904,1.0002639366545805,-97.7651980020736
6.390139392,1.000297869739979,-97.98313132634182
6.394426368,1.0003142171211392,-98.20144586098051
6.398713856,1.000311764787125,-98.4199126738536
6.403000832,1.0002908972922016,-98.63822561597254
6.40728832,1.0002526110736452,-98.85620070438601
6.411575808,1.0001991403183914,-99.07353058982635
6.415862784,1.0001337821762393,-99.29001101684315
6.420150272,1.0000605622492034,-99.50557867808175
6.424437248,0.9999835510874324,-99.7201469892969
6.428724736,0.9999075392092199,-99.93361135258955
6.433011712,0.9998371435736476,-100.14608740942217
6.4372992,0.9997765055927005,-100.35769908513477
6.441586176,0.9997293602315382,-100.56850633006405
6.445873664,0.9996983488298528,-100.77885277641322
6.45016064,0.999685654318873,-100.98888236816624
6.454448128,0.999691884136657,-101.1989209436996
6.458735104,0.9997166785007037,-101.40920228822
6.463022592,0.9997587313844752,-101.61996795621452
6.467309568,0.9998155143814605,-101.8314419441664
6.471597056,0.9998834509172607,-102.0438638523119
6.475884032,0.9999587400172449,-102.25728761182287
6.48017152,1.0000366352865702,-102.47183767534484
6.484458496,1.0001126216180871,-102.68750616050107
6.488745984,1.0001820600855187,-102.9042583940049
6.493033472,1.0002409722221752,-103.1218822728104
6.497320448,1.000285499077644,-103.34033013216427
6.501607936,1.0003131836252475,-103.55929684040858
6.505894912,1.0003222831380785,-103.77855100685434
6.5101824,1.0003120722353,-103.99785711450753
6.514469376,1.0002833974606897,-104.21690550017264
6.518756864,1.0002377871767616,-104.43544669466343
6.52304384,1.0001778304601912,-104.65327464219438
6.527331328,1.0001073420191944,-104.87021791759071
6.531618304,1.0000304206243134,-105.08618494341006
6.535905792,0.9999516495971272,-105.30103175694954
6.540192768,0.999875775177242,-105.51483043750807
6.544480256,0.9998073368106265,-105.72760290700798
6.548767232,0.9997505691230284,-105.93955345346619
6.55305472,0.999708757746938,-106.15081940659317
6.557341696,0.9996843140174496,-106.36164856581655
6.561629184,0.9996791343638277,-106.57229481476199
6.56591616,0.9996931467207606,-106.78302597940561
6.570203648,0.9997257933649601,-106.99408749643355
6.574491136,0.9997752201424603,-107.20578512485388
6.578778112,0.9998380788471366,-107.41827541548658
6.5830656,0.9999110308099624,-107.63181327675379
6.587352576,0.9999895841964582,-107.84637216672792
6.591640064,1.000068958787971,-108.0620999691774
6.59592704,1.0001444718697978,-108.27894086063235
6.600214528,1.0002115774954092,-108.49681513051277
6.604501504,1.000266159030605,-108.71561683570347
6.608788992,1.0003051601824673,-108.9350888800587
6.613075968,1.0003259788777445,-109.15500096050299
6.617363456,1.0003273953583387,-109.3751033275182
6.621650432,1.0003092903808637,-109.59512173194383
6.62593792,1.000272778162333,-109.81477861025168
6.630224896,1.0002199408765984,-110.03380988333599
6.634512384,1.000153992296696,-110.25209695158183
6.63879936,1.0000787136034996,-110.46937603466883
6.643086848,0.9999988767799388,-110.68557958852237
6.647373824,0.999918982387825,-110.900712634857
6.651661312,0.9998440622861915,-111.11473154823328
6.6559488,0.9997783664414442,-111.3277944219848
6.660235776,0.9997260760643872,-111.540058224148
6.664523264,0.9996902294561681,-111.75169979287435
6.66881024,0.99967298772494,-111.9630086982692
6.673097728,0.9996754551205981,-112.17424012316252
6.677384704,0.9996976081983439,-112.38565248568592
6.681672192,0.9997379643863283,-112.59755170278238
6.685959168,0.9997943563271497,-112.81013176070651
6.690246656,0.9998631676195391,-113.02363053764569
6.694533632,0.9999405235273986,-113.23818533787673
6.69882112,1.0000216350333275,-113.4538710882865
6.703108096,1.0001017765377167,-113.67070430444214
6.707395584,1.00017610142402,-113.8886977038906
6.71168256,1.0002399763057634,-114.10766101607408
6.715970048,1.000289780003452,-114.3274931275573
6.720257024,1.0003223608265552,-114.54789562816993
6.724544512,1.0003358054904832,-114.76867167852834
6.728831488,1.0003294002876735,-114.98951366883811
6.733118976,1.0003032733424173,-115.21016327415347
6.737406464,1.0002589550474053,-115.43034079537087
6.74169344,1.0001992100819102,-115.64979530196877
6.745980928,1.0001276056952617,-115.8683762097009
6.750267904,1.000048230656338,-116.08591006440948
6.754555392,0.9999660673775908,-116.30229781554151
6.758842368,0.9998859503616033,-116.51757494172817
6.763129856,0.9998126045679268,-116.731781857261
6.767416832,0.9997505014455481,-116.94508330297768
6.77170432,0.999703355382136,-117.15763304015394
6.775991296,0.999674046924052,-117.36965572952388
6.780278784,0.9996644384597799,-117.58138081307105
6.78456576,0.9996750079456681,-117.79316476531955
6.788853248,0.999705213937485,-118.005258241804
6.793140224,0.9997532964500302,-118.21795568665303
6.797427712,0.999816393822922,-118.43137785916318
6.801714688,0.9998906807491779,-118.64584257301873
6.806002176,0.9999719185017859,-118.86143503301722
6.810289152,1.000054942929574,-119.0781884018804
6.81457664,1.0001350346689797,-119.29610097304305
6.818864128,1.0002072119901562,-119.51513475816454
6.823151104,1.0002672087986955,-119.73515000272474
6.827438592,1.000311417587708,-119.95590913064447
6.831725568,1.0003371921891375,-120.17716354088404
6.836013056,1.0003428395511194,-120.39867239504864
6.840300032,1.0003282010162107,-120.62018382717739
6.84458752,1.0002939575248238,-120.84131363121368
6.848874496,1.0002421322969686,-121.06189402337105
6.853161984,1.0001758294210066,-121.28168410284013
6.85744896,1.0000990001549026,-121.50046007707192
6.861736448,1.0000162430424198,-121.71813805239181
6.866023424,0.9999324751296869,-121.93464193970686
6.870310912,0.9998527076001231,-122.15003642117824
6.874597888,0.9997818403414418,-122.36441478930462
6.878885376,0.999724098225569,-122.57783500444638
6.883172352,0.9996828490227614,-122.79058278725749
6.88745984,0.9996606238100019,-123.00295460605318
6.891746816,0.9996589785724832,-123.21509647550732
6.896034304,0.9996778491088759,-123.42743689918987
6.900321792,0.9997162290199948,-123.64017787272475
6.904608768,0.9997717799104466,-123.8535754691839
6.908896256,0.9998412080470889,-124.06789847391768
6.913183232,0.9999205107812768,-124.2833042347311
6.91747072,1.0000047651880708,-124.49986713543716
6.921757696,1.0000889303601097,-124.7176423073401
6.926045184,1.0001681639092774,-124.9366029150154
6.93033216,1.0002376058380598,-125.15658916652387
6.934619648,1.0002929250872772,-125.37752720355184
6.938906624,1.0003309377105718,-125.59913557718293
6.943194112,1.0003493088414335,-125.82118600976258
6.947481088,1.000346945732191,-126.04333470167677
6.951768576,1.0003238690719214,-126.26534478457792
6.956055552,1.0002814959791109,-126.4869089035354
6.96034304,1.0002223359683773,-126.7077745390734
6.964630016,1.0001498310250387,-126.92772908167025
6.968917504,1.0000683699234512,-127.14659877049841
6.97320448,0.9999827268322514,-127.36438455363182
6.977491968,0.9998982715377496,-127.58091461062136
6.981779456,0.9998196680413686,-127.79633131640455
6.986066432,0.9997520560227456,-128.01072738891637
6.99035392,0.9996993106293441,-128.22430153287513
6.994640896,0.9996646145754944,-128.437261267566
6.998928384,0.9996500419466954,-128.64990851427982
7.00321536,0.9996566168266527,-128.86249030997328
7.007502848,0.9996839076950454,-129.07529718046868
7.011789824,0.999730352121703,-129.28868100542067
7.016077312,0.9997931774173122,-129.50281299131234
7.020364288,0.9998686163842357,-129.71798725678795
7.024651776,0.9999521787747935,-129.9342812033715
7.028938752,1.0000389527576241,-130.15176183982462
7.03322624,1.000123539892807,-130.37052962808193
7.037513216,1.0002011077779325,-130.59041614451684
7.041800704,1.0002668434526956,-130.81133999137185
7.04608768,1.0003167701129008,-131.03310904436913
7.050375168,1.000347995443768,-131.2554641888111
7.054662144,1.0003585020070862,-131.47813305656305
7.058949632,1.000347671890722,-131.70084764975394
7.06323712,1.0003162143218713,-131.9232409246333
7.067524096,1.0002657770113055,-132.1451076578522
7.071811584,1.00019953177323,-132.36616303948725
7.07609856,1.00012129947032,-132.58622011033964
7.080386048,1.0000357943814706,-132.80512667057172
7.084673024,0.9999480936551649,-133.0228260692379
7.088960512,0.9998635274709617,-133.23930830045552
7.093247488,0.9997871419736571,-133.45471042916023
7.097534976,0.9997234520682404,-133.66911123480438
7.101821952,0.9996763983286681,-133.88272749929013
7.10610944,0.9996487793001385,-134.0958440576371
7.110396416,0.9996423742231537,-134.30873779172455
7.114683904,0.9996575601817911,-134.52168577300515
7.11897088,0.9996933096514227,-134.7350005549979
7.123258368,0.9997477085422144,-134.94900268322328
7.127545344,0.9998174039663896,-135.16387439056564
7.131832832,0.9998983364489836,-135.37982032319488
7.136119808,0.9999855968802739,-135.5969355962572
7.140407296,1.0000740614147938,-135.8153632560873
7.144694784,1.0001583495927686,-136.03497828011555
7.14898176,1.0002333443441278,-136.25577126172763
7.153269248,1.0002946264540031,-136.47751185309752
7.157556224,1.0003384595296676,-136.70002814885382
7.161843712,1.0003622992491288,-136.9230358663703
7.166130688,1.0003645613780965,-137.14622919486945
7.170418176,1.00034511145835,-137.36938475593251
7.174705152,1.0003050446414607,-137.5920463766698
7.17899264,1.000246798551277,-137.81409107216388
7.183279616,1.0001737446666201,-138.03520927893797
7.187567104,1.0000903026923262,-138.25525142392453
7.19185408,1.0000014851604055,-138.47406405849895
7.196141568,0.9999124876187852,-138.691650468621
7.200428544,0.9998286591060568,-138.90803048890652
7.204716032,0.9997551398507334,-139.12331700301638
7.209003008,0.9996963439646529,-139.33765323376824
7.213290496,0.9996557086104764,-139.55129958630926
7.217577472,0.9996357987387439,-139.76453502630733
7.22186496,0.9996378256799799,-139.9776434725623
7.226152448,0.9996617786137265,-140.1909436567613
7.230439424,0.9997061208461341,-140.4047532846858
7.234726912,0.9997681859152996,-140.6193253127735
7.239013888,0.9998444803297767,-140.8348642872666
7.243301376,0.9999303021713474,-141.05155864696212
7.247588352,1.0000206218088104,-141.26951335285682
7.25187584,1.000109941765455,-141.48873651332212
7.256162816,1.0001929803990512,-141.70922028241503
7.260450304,1.0002646952775909,-141.93079457632933
7.26473728,1.0003207619532095,-142.15329339093734
7.269024768,1.0003579102530689,-142.37643954002516
7.273311744,1.000373799150062,-142.6000072960787
7.277599232,1.0003673488375016,-142.82363360209948
7.281886208,1.000339105015426,-143.04703509514678
7.286173696,1.0002905820155978,-143.26990452802542
7.290460672,1.0002247024867854,-143.4919667839934
7.29474816,1.0001453273325378,-143.7130840581239
7.299035136,1.0000573152234613,-143.93296383689463
7.303322624,0.9999657565209272,-144.1516168696391
7.307610112,0.9998761970214699,-144.36898383727578
7.311897088,0.9997940976199383,-144.58516526819355
7.316184576,0.9997243224470969,-144.8002484004499
7.320471552,0.9996711060679515,-145.0145068712038
7.32475904,0.9996375741004025,-145.22813457893017
7.329046016,0.9996258495522135,-145.44143463032884
7.333333504,0.9996366815641118,-145.65478791716356
7.33762048,0.9996694053221697,-145.86840437161567
7.341907968,0.999722111861828,-146.08265426201066
7.346194944,0.9997917515454674,-146.29775113765538
7.350482432,0.9998741466633382,-146.51397668284335
7.354769408,0.9999643080434356,-146.7313948012654
7.359056896,1.0000568185715601,-146.9500692920455
7.363343872,1.0001462867015223,-147.170093360308
7.36763136,1.0002272204489009,-147.39132934268787
7.371918336,1.0002948777276113,-147.61362468629582
7.376205824,1.0003449789951042,-147.83674053457236
7.3804928,1.000374701976895,-148.06044415778737
7.384780288,1.0003821264581056,-148.28443541789588
7.389067776,1.000366831782964,-148.50835947634187
7.393354752,1.0003296300679951,-148.7319401710178
7.39764224,1.0002727492315526,-148.9548643612701
7.401929216,1.0001994768464093,-149.1768599315484
7.406216704,1.0001143680803128,-149.39777646861108
7.41050368,1.0000222843244728,-149.6174591197513
7.414791168,0.999928914482429,-149.83583279424576
7.419078144,0.9998397234099953,-150.05289920873548
7.423365632,0.9997600748124582,-150.26883085938707
7.427652608,0.9996948547145068,-150.48369614384345
7.431940096,0.9996479725814479,-150.69779361225525
7.436227072,0.9996221011044392,-150.91134330521766
7.44051456,0.9996190582755828,-151.12474285541566
7.444801536,0.999638952818445,-151.33820105818137
7.449089024,0.9996806956289382,-151.5521596221519
7.453376,0.9997417185020692,-151.7667909407578
7.457663488,0.9998185146365699,-151.98244841051036
7.461950464,0.9999063456254765,-152.1992590226143
7.466237952,1.0000001002446257,-152.41733967003194
7.47052544,1.0000941376805794,-152.63677001503575
7.474812416,1.0001828837470552,-152.8574652521512
7.479099904,1.0002609228768964,-153.0794083411902
7.48338688,1.00032355387843,-153.3023002938975
7.487674368,1.0003670781583718,-153.52599764147112
7.491961344,1.0003887194189358,-153.75010974778314
7.496248832,1.000387300954068,-153.9744217814707
7.500535808,1.0003628345570141,-154.19853281708873
7.504823296,1.0003166023907704,-154.42216117204217
7.509110272,1.0002516348258694,-154.64502627523004
7.51339776,1.0001714677352684,-154.86683772231802
7.517684736,1.00008104459834,-155.08747496310556
7.521972224,0.9999857216674313,-155.30682273118154
7.5262592,0.99989123836997,-155.52482419498554
7.530546688,0.9998032197513987,-155.74152156548317
7.534833664,0.9997269429204136,-155.95709064381887
7.539121152,0.999667131585212,-156.1716538572245
7.543408128,0.9996271789179761,-156.38553404260009
7.547695616,0.9996096813279445,-156.59902183926877
7.551983104,0.9996156572756851,-156.81244495546304
7.55627008,0.9996448467535927,-157.02607847379937
7.560557568,0.9996955069463591,-157.24029543613955
7.564844544,0.9997645724959897,-157.45534580740792
7.569132032,0.9998479967243841,-157.67146661720824
7.573419008,0.9999408737291258,-157.88883806689026
7.577706496,1.0000375637561394,-158.10758234758484
7.581993472,1.0001322556993464,-158.32764369105598
7.58628096,1.0002193186754036,-158.54901812145297
7.590567936,1.0002935113895863,-158.77152684670054
7.594855424,1.0003504345584655,-158.99496802322824
7.5991424,1.0003865178665114,-159.21906827089532
7.603429888,1.000399597647592,-159.44355483393963
7.607716864,1.0003889764085663,-159.66801685641727
7.612004352,1.0003552279686465,-159.89215501669582
7.616291328,1.0003000870658576,-160.11575329702342
7.620578816,1.0002271383271029,-160.33839924954947
7.624865792,1.0001404843145283,-160.55992331248902
7.62915328,1.0000454119279094,-160.78016759939894
7.633440768,0.9999476268815274,-160.9990813824879
7.637727744,0.9998529420567754,-161.21663095272274
7.642015232,0.9997669421140741,-161.4328686697122
7.646302208,0.9996948923099839,-161.64801920588582
7.650589696,0.9996411824187877,-161.86226897667413
7.654876672,0.9996089934879534,-162.07594609086254
7.65916416,0.9996003779533994,-162.28929096006374
7.663451136,0.9996156734404519,-162.5026498109397
7.667738624,0.9996543404849499,-162.71645501564998
7.6720256,0.9997138000400687,-162.9309012654434
7.676313088,0.9997906879411709,-163.1463439263862
7.680600064,0.999880338716176,-163.36293181609196
7.684887552,0.9999775534194504,-163.58083293685658
7.689174528,1.0000762776185368,-163.80014074870252
7.693462016,1.0001707641664852,-164.02081126185172
7.697748992,1.0002553826775644,-164.24272972089034
7.70203648,1.0003248447532704,-164.4657482195054
7.706323456,1.0003751857124723,-164.68961954827807
