freq,mag,phase
6.0,0.9989621610005892,94.01974630346042
6.002287104,0.999521899471319,93.89658379406214
6.004574208,1.0001129642179387,93.7651032686501
6.006861312,1.0006968737748152,93.62510568942415
6.009147904,1.0012365358774133,93.47701982630707
6.011435008,1.0016981260265472,93.32165824983271
6.013722112,1.0020519086493191,93.16043727704131
6.016009216,1.0022760031187783,92.995052705612
6.01829632,1.0023560113572065,92.82751423096724
6.020583424,1.0022869930875526,92.65991829611228
6.022870016,1.0020731223570298,92.49436238645961
6.02515712,1.0017276725116278,92.33292703347381
6.027444224,1.0012727530006438,92.17725258608364
6.029731328,1.0007368582179963,92.02880218806358
6.032018432,1.0001538490320903,91.88852276222974
6.034305536,0.9995606249203678,91.75680020461499
6.036592128,0.9989949276345131,91.63357091080901
6.038879232,0.9984927282430975,91.51814447083629
6.041166336,0.9980860332798508,91.40940503144319
6.04345344,0.997800644717186,91.30574112040486
6.045740544,0.9976549319415011,91.20528340697962
6.048027648,0.9976583561006923,91.10589289116403
6.05031424,0.9978106800077884,91.00540754204313
6.052601344,0.9981021100234049,90.90170937590862
6.054888448,0.9985142358119947,90.79288097765617
6.057175552,0.9990207168674444,90.67738768833856
6.059462656,0.9995894493808034,90.55405804057123
6.06174976,1.000184286602277,90.42231207342304
6.064036352,1.000767315416188,90.28203605347515
6.066323456,1.001301867616513,90.13366597064811
6.06861056,1.0017537606405975,89.97815916776541
6.070897664,1.0020948512562589,89.8169809672618
6.073184768,1.0023031538277793,89.65181017710634
6.075471872,1.002365712726699,89.48471922198264
6.077758464,1.0022786736951643,89.31783751077
6.080045568,1.0020470565357644,89.15323435336157
6.082332672,1.0016857069392915,88.99300922339265
6.084619776,1.0012174795897157,88.83875115887282
6.08690688,1.0006715793482035,88.69189723218763
6.089193984,1.000082873692012,88.55328577571903
6.091481088,0.9994883343368591,88.42331819352141
6.09376768,0.9989259657655228,88.30180969010827
6.096054784,0.998431441437346,88.18801831848855
6.098341888,0.998036245579469,88.08080407527464
6.100628992,0.9977656935814372,87.97842552450926
6.102916096,0.9976370582779743,87.87905187924137
6.1052032,0.9976586154193229,87.78048400951526
6.107489792,0.9978290011539236,87.68053404049044
6.109776896,0.9981374513858117,87.57710410702387
6.112064,0.9985643885655834,87.4683542454193
6.114351104,0.9990825352902611,87.35270372272896
6.116638208,0.9996589269380834,87.22911204801359
6.118925312,1.0002569283796208,87.09700515019286
6.121211904,1.0008386207632003,86.95631853534516
6.123499008,1.001367260030398,86.80762070110241
6.125786112,1.0018092459065573,86.65190385381219
6.128073216,1.002136683615608,86.49064288762416
6.13036032,1.0023288408048805,86.32564800380925
6.132647424,1.0023735580962452,86.15894564720385
6.134934016,1.0022680996850941,85.99271628377636
6.13722112,1.002018936315019,85.82906577721677
6.139508224,1.001641584361507,85.66995319020006
6.141795328,1.0011600365267297,85.51709131180148
6.144082432,1.0006046845139591,85.37175235808434
6.146369536,1.0000105090895395,85.2347899725833
6.148656128,0.9994151969969313,85.10649564052407
6.150943232,0.9988567235838104,84.98661648974321
6.153230336,0.998370404590839,84.8744260403733
6.15551744,0.9979874599965197,84.76861257430251
6.157804544,0.9977321595804963,84.66749200953652
6.160091648,0.9976208971921925,84.56907659147936
6.162378752,0.9976609197709054,84.4712019929036
6.164665344,0.9978497108126265,84.37168497665452
6.166952448,0.9981752639328066,84.26844316482486
6.169239552,0.998616768632598,84.15961317369236
6.171526656,0.9991461923415814,84.04372701427876
6.17381376,0.9997298692400128,83.91973489460396
6.176100864,1.000330597525331,83.7871626286172
6.178387456,1.0009104163406115,83.64601459226981
6.18067456,1.0014324895989952,83.49688787439399
6.182961664,1.0018639372063856,83.3408631942834
6.185248768,1.0021771538297497,83.17949778168507
6.187535872,1.0023527105814587,83.01461165508489
6.189822976,1.0023793489002852,82.84825600204377
6.192109568,1.00225524700854,82.6826330703364
6.194396672,1.0019882323602638,82.51986560549051
6.196683776,1.001595041803679,82.36187506579427
6.19897088,1.001100471198207,82.21032402011706
6.201257984,1.0005359087562495,82.06644732727841
6.203545088,0.9999368691219607,81.93108140378284
6.20583168,0.9993413787506052,81.80441557278189
6.208118784,0.9987873704871176,81.68614451492373
6.210405888,0.9983098707823279,81.57542079404513
6.212692992,0.9979396328346243,81.47091824058185
6.214980096,0.9977002296370506,81.37089865331423
6.2172672,0.9976067814363925,81.27338260663296
6.219553792,0.9976655968618746,81.17610729326276
6.221840896,0.9978728591658586,81.07692966500069
6.224128,0.9982153180422346,80.97372265474031
6.226415104,0.9986713801935797,80.86472227136528
6.228702208,0.9992117238061958,80.74846652319879
6.230989312,0.9998022396717946,80.62399887818935
6.233275904,1.00040524498787,80.49085794534368
6.235563008,1.0009825150263532,80.34914173304855
6.237850112,1.0014975688021455,80.19952782508243
6.240137216,1.0019177597067708,80.04315343001858
6.24242432,1.002216407942624,79.88160756875226
6.244711424,1.0023748776063381,79.71675192038695
6.246998528,1.0023829025334021,79.55069230820092
6.24928512,1.0022399287462478,79.38565095375075
6.251572224,1.0019551968482512,79.22370680012726
6.253859328,1.001546135259115,79.06679333531355
6.256146432,1.0010389820794572,78.91648989843891
6.258433536,1.0004654587684678,78.7740917594579
6.26072064,0.9998619955167536,78.6402365524746
6.263007232,0.9992668884815568,78.5151158219973
6.265294336,0.9987178472394321,78.39836836419093
6.26758144,0.9982499846106455,78.28903522353063
6.269868544,0.9978929908806249,78.18580178068093
6.272155648,0.9976697500706438,78.08681506132527
6.274442752,0.9975945754132518,77.99004038826814
6.276729344,0.9976725480112754,77.89325883004449
6.279016448,0.9978982566643437,77.79429235948517
6.281303552,0.9982578003483445,77.69105311986782
6.283590656,0.9987280587762902,77.58174924106238
6.28587776,0.9992791238202169,77.46505168801438
6.288164864,0.9998759643562313,77.33996283401525
6.290451456,1.0004807156853277,77.20616438974237
6.29273856,1.0010548190711934,77.06381269636589
6.295025664,1.0015621767821323,76.91363549674584
6.297312768,1.0019705745611562,76.75683152551966
6.299599872,1.0022540892587535,76.59503380091364
6.301886976,1.002394895647337,76.4301734767834
6.304173568,1.0023841261095234,76.2643925521903
6.306460672,1.002222322246044,76.09986313835105
6.308747776,1.0019195870024653,75.93869195991769
6.31103488,1.0014950766017363,75.78281684834664
6.313321984,1.0009753556748957,75.63376594558603
6.315609088,1.000393429182036,75.49274175823638
6.317896192,0.9997861371039907,75.36033954887017
6.320182784,0.9991918653352763,75.23671378391255
6.322469888,0.9986485228666211,75.12141931808064
6.324756992,0.998190776378043,75.01343924424094
6.327044096,0.9978476212449091,74.91133207677775
6.3293312,0.9976412057140166,74.81323658692186
6.331618304,0.9975846138762821,74.71713500158945
6.333904896,0.9976817130607057,74.6207417443709
6.336192,0.9979262327114289,74.52186697184328
6.338479104,0.9983025340663939,74.41845903230617
6.340766208,0.9987868620588045,74.30878890585531
6.343053312,0.9993482169878799,74.1914907854883
6.345340416,0.9999509430494248,74.06572698963507
6.347627008,1.000556716842067,73.93119052374749
6.349914112,1.0011273009882948,73.78811222939157
6.352201216,1.00162628998625,73.63728017072512
6.35448832,1.0020222988225473,73.47999382916728
6.356775424,1.0022901753812306,73.31791280186069
6.359062528,1.0024132089983753,73.15299856787995
6.36134912,1.0023831812584554,72.98743656093795
6.363636224,1.0022021775516956,72.82339053603897
6.365923328,1.001881701618105,72.66299491944372
6.368210432,1.0014416472320784,72.50808001468373
6.370497536,1.0009098507373924,72.36021100944777
6.37278464,1.0003198714175634,72.2205255579696
6.375071232,0.9997092266840403,72.08952616629239
6.377358336,0.9991164835326031,71.96734107611377
6.37964544,0.9985795285601868,71.8533895333295
6.381932544,0.9981323096398239,71.7466582732085
6.384219648,0.9978035575820723,71.64561135887801
6.386506752,0.99761440049132,71.5483574783978
6.388793344,0.9975767470533515,71.45279931051175
6.391080448,0.9976932871249464,71.3566871642878
6.393367552,0.9979564496286739,71.25777601629959
6.395654656,0.9983495753494332,71.15410484005598
6.39794176,0.9988476298554753,71.04394486550065
6.400228864,0.9994189153998485,70.92597036557635
6.402515968,1.0000270182634257,70.79942445291944
6.40480256,1.0006334442739744,70.6640600413724
6.407089664,1.0011996117555952,70.52018495669088
6.409376768,1.001689782589003,70.36865413931477
6.411663872,1.00207286030563,70.21080088961996
6.413950976,1.0023246157630816,70.04837506288517
6.41623808,1.0024292633822138,69.88336112965803
6.418524672,1.0023799807250793,69.7179724450392
6.420811776,1.0021799690173172,69.55434219918735
6.42309888,1.0018415680152104,69.39465382230848
6.425385984,1.001386268197556,69.24067917264396
6.427673088,1.0008426573588018,69.093989017403
6.429960192,1.0002452506466746,68.95552607441319
6.432246784,0.9996317047489078,68.82591948460656
6.434533888,0.9990410690944219,68.7050752390722
6.436820992,0.9985109605866074,68.5924372565294
6.439108096,0.9980749670080966,68.48683907670446
6.4413952,0.9977612454029242,68.38673155178525
6.443682304,0.9975896126616934,68.29024251743753
6.445968896,0.9975712597687051,68.19512588803639
6.448256,0.9977072622603795,68.09916195351575
6.450543104,0.9979891272860804,68.00016862098225
6.452830208,0.9983989014340845,67.89611283497057
6.455117312,0.9989103742986092,67.78532774982337
6.457404416,0.9994910969040979,67.66658200699699
6.459691008,1.0001040870214588,67.53917069085568
6.461978112,1.0007104906110649,67.40288679785515
6.464265216,1.0012717507185966,67.25812116418228
6.46655232,1.0017524299282423,67.10581625110122
6.468839424,1.0021220390115835,66.94736458374702
6.471126528,1.002357241072648,66.78452353072858
6.473413632,1.0024432535231445,66.6193660627026
6.475700224,1.0023744047769971,66.45409253464634
6.477987328,1.0021550788063005,66.29088759770686
6.480274432,1.0017990384327484,66.1318436517975
6.482561536,1.001328715270341,65.97880807393649
6.48484864,1.000773800481423,65.83316543218069
6.487135744,1.0001692576303862,65.69597006836567
6.489422336,0.9995534966797339,65.5676285442155
6.49170944,0.9989655295021832,65.44808353969572
6.493996544,0.998442902695925,65.33662835885166
6.496283648,0.9980188526324714,65.2321210259321
6.498570752,0.9977205369163261,65.13291946485234
6.500857856,0.9975669422572506,65.03699569871084
6.503144448,0.9975680743975618,64.94224673869402
6.505431552,0.9977237347424058,64.84635230938864
6.507718656,0.9980243274868883,64.74711222081467
6.51000576,0.998450463964836,64.64257214557023
6.512292864,0.9989750830326733,64.53109722244245
6.514579968,0.9995648251935254,64.41148527454239
6.51686656,1.0001821094488452,64.2830778988071
6.519153664,1.0007879241623179,64.1457895750683
6.521440768,1.0013437166442154,64.00010806849242
6.523727872,1.0018142523589335,63.84694229178008
6.526014976,1.0021699111259001,63.6878189129702
6.52830208,1.0023881252046543,63.524523542710654
6.530588672,1.002455109647419,63.3591879122637
6.532875776,1.002366602550485,63.19399176419109
6.53516288,1.002128005915079,63.031163452863495
6.537449984,1.0017544479946885,62.87275962439892
6.539737088,1.0012693521914298,62.72056605587207
6.542024192,1.000703326592935,62.57597858179228
6.544310784,1.0000922828487282,62.43993165723589
6.546597888,0.9994747746934006,62.312828315374354
6.548884992,0.9988902256081482,62.194508831414616
6.551172096,0.9983757295936959,62.08418046749226
6.5534592,0.9979640260463513,61.98065497421385
6.555746304,0.9976815156414661,61.882227267668085
6.558033408,0.9975463768548967,61.78683518818901
6.56032,0.9975671773884633,61.69231638524002
6.562607104,0.9977426679927061,61.59634956093858
6.564894208,0.9980617803200628,61.496771691077484
6.567181312,0.9985041293625238,61.39163668631476
6.569468416,0.9990414820046161,61.279363501799246
6.57175552,0.9996397507771523,61.158796811005764
6.574042112,1.0002608814345209,61.02931089797721
6.576329216,1.0008654255861715,60.890992715531596
6.57861632,1.0014150581474852,60.74423787884865
6.580903424,1.0018750498677302,60.590175859636744
6.583190528,1.0022162076142969,60.43033639163077
6.585477632,1.0024169939008845,60.26655130752992
6.587764224,1.0024647605647439,60.100972055993225
6.590051328,1.0023562936184995,59.93582528272201
6.592338432,1.0020985506532738,59.77331539654633
6.594625536,1.0017075577780936,59.6154960031868
6.59691264,1.0012079939698662,59.464110912944946
6.599199744,1.0006314554735904,59.32052476098755
6.601486336,1.0000143517144713,59.1856066987612
6.60377344,0.9993957580321223,59.059655686606476
6.606060544,0.9988150571154905,58.942475019415824
6.608347648,0.9983092186851964,58.833218005332256
6.610634752,0.9979104444357805,58.73058090960753
6.612921856,0.9976443658126791,58.63280136857074
6.615208448,0.9975278067102896,58.537855517138055
6.617495552,0.9975685650245498,58.44345115752988
6.619782656,0.9977638938563778,58.347333674585535
6.62206976,0.9981014245324694,58.247309156765176
6.624356864,0.9985596861397575,58.141474028245185
6.626643968,0.9991094673547267,58.028284837486964
6.628931072,0.9997157704665549,57.90664836770897
6.631217664,1.0003401757502564,57.77606692066652
6.633504768,1.0009428168825938,57.63656512544758
6.635791872,1.00148584052048,57.48871274612791
6.638078976,1.001934525240373,57.33371188347842
6.64036608,1.002260770876323,57.173052467649825
6.642653184,1.0024437897978067,57.00874092401978
6.644939776,1.0024719825427326,56.842898618221554
6.64722688,1.0023436466586348,56.677743567086644
6.649513984,1.0020666450497464,56.51551710921019
6.651801088,1.0016585243388363,56.358233216491264
6.654088192,1.0011447965257734,56.207615220653246
6.656375296,1.0005580424093505,56.06497316284826
6.658661888,0.9999354692887993,55.931119787983484
6.660948992,0.9993164275441124,55.806280363597445
6.663236096,0.9987402462940168,55.69014820978469
6.6655232,0.9982436175340654,55.58187676497745
6.667810304,0.9978583359290017,55.480027443464856
6.670097408,0.9976089230401595,55.382846254188436
6.672384,0.99751154322234,55.2881954370513
6.674671104,0.9975722270063626,55.19382087101001
6.676958208,0.9977874083600934,55.0974384517001
6.679245312,0.9981432511881,54.996872516193385
6.681532416,0.9986171267910378,54.89024238920548
6.68381952,0.999178906748285,54.77602412757811
6.686106112,0.9997928331852124,54.65325201503227
6.688393216,1.0004197855322565,54.52143522040995
6.69068032,1.0010201937441927,54.38069877107619
6.692967424,1.0015558141577643,54.231696609602416
6.695254528,1.001992771255382,54.075659544920214
6.697541632,1.0023036250911357,53.91419740829781
6.699828224,1.0024685194350678,53.74928487673338
6.702115328,1.0024770312981175,53.583110587575725
6.704402432,1.0023286090132608,53.417922778298696
6.706689536,1.002032456012403,53.2559517717777
6.70897664,1.001607277874642,53.09917510439322
6.711263744,1.0010799430911312,52.94928228963643
6.713550848,1.0004836336913374,52.80752339075216
6.71583744,0.999855933944289,52.67465640202143
6.718124544,0.9992369744943528,52.55084183149272
6.720411648,0.9986659405314472,52.43572955364824
6.722698752,0.9981791915646302,52.32831418638841
6.724985856,0.997807746698865,52.22717273265888
6.72727296,0.9975755673333525,52.13047252005685
6.729559552,0.9974974461926188,52.03603670431917
6.731846656,0.9975784215859407,51.94159258892304
6.73413376,0.9978133619048147,51.84481221633004
6.736420864,0.9981873691383089,51.74358120187236
6.738707968,0.9986766025207073,51.63605148415607
6.740995072,0.9992498923819071,51.520728751188194
6.743281664,0.9998707846688972,51.39670142861528
6.745568768,1.0004999292296093,51.2635718952999
6.747855872,1.0010972767880624,51.12153758348561
6.750142976,1.0016250407847158,50.9713132922738
6.75243008,1.0020497977083629,50.81419293951312
6.754717184,1.0023447370452132,50.65185472785275
6.757003776,1.0024911406051031,50.48631351488306
6.75929088,1.002479820892181,50.31976342846302
6.761577984,1.002311258558649,50.154527319357996
6.763865088,1.001996162645613,49.99273654953507
6.766152192,1.0015543950006551,49.83643012905571
6.768439296,1.0010135748508115,49.687202827635936
6.770725888,1.000407979643274,49.54629358418702
6.773012992,0.9997760059252836,49.414345356375954
6.775300096,0.999157720558764,49.29151872471437
6.7775872,0.998592295181613,49.177283329635905
6.779874304,0.998115929914272,49.07068774782682
6.782161408,0.9977589351041171,48.97016965591643
6.784448512,0.997544234629053,48.87383587265168
6.786735104,0.9974857107613705,48.77950685914439
6.789022208,0.997586869377899,48.684860442972884
6.791309312,0.9978416284844274,48.587597289328315
6.793596416,0.9982335396938486,48.48561451034196
6.79588352,0.998737802199543,48.37703699915541
6.798170624,0.9993221447175097,48.26055191601307
6.800457216,0.9999495882319361,48.13518037868534
6.80274432,1.0005801688144054,48.000669518487186
6.805031424,1.0011739309493182,47.857246482376006
6.807318528,1.0016933022793053,47.70575631490048
6.809605632,1.0021053222475775,47.547474599664696
6.811892736,1.0023839495934161,47.384213694759474
6.814179328,1.0025116031205163,47.21798171368187
6.816466432,1.0024802918147788,47.05103226284388
6.818753536,1.0022916686371175,46.88566325109165
6.82104064,1.001957759829513,46.724029639263556
6.823327744,1.0014994060504525,46.56813330246764
6.825614848,1.0009457039903347,46.41955264613006
6.82790144,1.0003313894695953,46.27942016750021
6.830188544,0.9996955566269476,46.14836490333925
6.832475648,0.9990785030291033,46.02639580198011
6.834762752,0.9985193598005561,45.91301537162491
6.837049856,0.9980539162372963,45.807116797921154
6.83933696,0.9977118223730252,45.70712318373093
6.841623552,0.99751500238714,45.61104924192907
6.843910656,0.9974761626166836,45.51671448205794
6.84619776,0.9975976685595994,45.42177816982354
6.848484864,0.9978720458882998,45.32391929285458
6.850771968,0.9982816263721956,45.22106508678711
6.853059072,0.9988005171467256,45.111404536007306
6.855345664,0.9993955190536844,44.99358231476937
6.857632768,1.0000289422023043,44.86681342543016
6.859919872,1.0006604230877953,44.7308403899815
6.862206976,1.0012500271095082,44.585966201372926
6.86449408,1.0017603891093645,44.4331036576909
6.866781184,1.002159194749432,44.27364466680269
6.869068288,1.0024212446348757,44.10939640252471
6.87135488,1.0025299285115628,43.942432097099925
6.873641984,1.00247837097099,43.77505589735914
6.875929088,1.002269735296844,43.609525716186795
6.878216192,1.001917136678082,43.44801445213033
6.880503296,1.0014426611579128,43.29247943115806
6.8827904,1.0008763419120088,43.14446845110428
6.885076992,1.0002539292128279,43.00505481223342
6.887364096,0.9996148208645179,42.87479246028219
6.8896512,0.9989995212221757,42.75366902411505
6.891938304,0.998447226610212,42.641039463563324
6.894225408,0.9979932108757944,42.53575398294236
6.896512512,0.9976664209983963,42.43617529191023
6.898799104,0.9974877421386493,42.34029048961244
6.901086208,0.9974687305520232,42.245845108011586
6.903373312,0.9976106326896096,42.15047187957739
6.905660416,0.9979045642390059,42.0519298359579
6.90794752,0.9983317054357457,41.9480692326163
6.910234624,0.998864724757795,41.83720595805113
6.912521216,0.9994699561480948,41.71800748415714
6.91480832,1.0001087035894778,41.58974790116287
6.917095424,1.0007406244560735,41.45221089740143
6.919382528,1.0013255301827026,41.30583784197489
6.921669632,1.0018263876152946,41.15155570872038
6.923956736,1.0022115522462183,40.99084297231337
6.926243328,1.0024566224769984,40.82557340639601
6.928530432,1.002546153986378,40.65784182508864
6.930817536,1.0024743093485515,40.48996501174951
6.93310464,1.0022457880043678,40.32423930438319
6.935391744,1.0018747525788276,40.162800287488
6.937678848,1.0013844842133846,40.00759493629117
