freq,mag,phase
6.0,0.9997879226348813,-1.914578052656264
6.022099456,0.9997857572060499,-2.588402792421471
6.044198912,0.9997907694540861,-3.262331095655231
6.066298368,0.9998029232407037,-3.936386250004231
6.088397824,0.9998218129736262,-4.610622383487201
6.11049728,0.9998467217827791,-5.2851791771951975
6.132596736,0.9998770980830303,-5.960134663676386
6.154696192,0.9999115534965682,-6.635456764753293
6.176795648,0.9999492304511066,-7.311184768189103
6.198895104,0.9999885717057903,-7.98743662174831
6.22099456,1.0000284436820472,-8.66414613993586
6.243094016,1.0000674473790803,-9.341351597375187
6.265193472,1.0001043056434715,-10.019012879112267
6.287292928,1.000137626893512,-10.697111855064675
6.309392384,1.0001664448451661,-11.375592726541267
6.33149184,1.0001896147205742,-12.054405854842035
6.353591296,1.0002063104640335,-12.733524651509141
6.375690752,1.0002162151358507,-13.412837674967534
6.397790208,1.0002188229861761,-14.092274439426795
6.419889664,1.0002139797682799,-14.771740067602048
6.44198912,1.000201970481565,-15.451227305786324
6.464088576,1.0001830512850447,-16.130569070792745
6.486188032,1.0001578681242511,-16.809773556254765
6.508287488,1.0001274112015999,-17.488731346004993
6.530386944,1.0000926146600062,-18.16740639892745
6.5524864,1.0000546349006196,-18.845785212563243
6.574585856,1.0000146481262318,-19.52378821491262
6.596685312,0.9999743565302183,-20.201457746461838
6.618784768,0.9999349074363333,-20.878765050762304
6.640884224,0.9998974015906821,-21.555714784021987
6.66298368,0.9998635825486119,-22.232346421144594
6.685082624,0.9998342283314277,-22.908710739260496
6.70718208,0.999810579236153,-23.58484521980461
6.729281536,0.9997933554098767,-24.260823822099738
6.751380992,0.9997831684904324,-24.936707419551755
6.773480448,0.9997802956298547,-25.612637254919342
6.795579904,0.999784929639823,-26.288600906159502
6.81767936,0.9997970692105114,-26.9647169324474
6.839778816,0.9998159905643554,-27.64108185299703
6.861878272,0.9998412280494725,-28.31772820343572
6.883977728,0.9998720617730725,-28.994760969636186
6.906077184,0.9999072039961595,-29.672174565870048
6.92817664,0.9999456933703005,-30.35003481672522
6.950276096,0.9999859535679743,-31.028421055290195
6.972375552,1.0000268983764302,-31.707263184656064
6.994475008,1.0000670986907472,-32.38658516540377
7.016574464,1.000105172180402,-33.066438016071736
7.03867392,1.000139607772462,-33.746722584523155
7.060773376,1.0001694836131956,-34.42740826385028
7.082872832,1.0001936099361433,-35.10845538568864
7.104972288,1.0002114267613278,-35.789736467888886
7.127071744,1.0002219583966439,-36.471316368265946
7.1491712,1.0002249745739935,-37.15300040672598
7.171270656,1.0002206463089658,-37.83473296158669
7.193370112,1.0002086151298044,-38.51647455177841
7.215469568,1.0001895856518546,-39.19810349684149
7.237569024,1.0001642273199076,-39.87954521350216
7.25966848,1.000133178643027,-40.56080582706076
7.281767936,1.0000976267640938,-41.24172475547466
7.303867392,1.0000586583827134,-41.92234620704016
7.325966848,1.000017824082768,-42.602613136380036
7.348066304,0.9999762033412748,-43.282504427817955
7.37016576,0.9999355413728521,-43.96203270573843
7.392265216,0.9998968551123627,-44.64121736226731
7.414364672,0.999861784630424,-45.3200141507934
7.436464128,0.9998310968161013,-45.998594742213804
7.458563584,0.9998065092921808,-46.67692886306563
7.48066304,0.9997882180243501,-47.35509369188411
7.502762496,0.999777238827343,-48.03313188683423
7.524861952,0.9997738476469834,-48.71119496502217
7.546961408,0.9997780508482514,-49.38933834239309
7.569060864,0.9997898958300474,-50.06759557087619
7.59116032,0.9998090475614164,-50.74613594771897
7.613259776,0.9998346876332064,-51.4249270744682
7.635359232,0.9998660299481553,-52.10408942456065
7.657458688,0.9999019488812618,-52.78371011936115
7.679558144,0.9999412491053529,-53.46379771091519
7.7016576,0.9999827730479702,-54.14431996124322
7.723757056,1.0000250440345082,-54.82538330240895
7.745856512,1.0000664563900947,-55.50697051231473
7.767955968,1.0001059351347579,-56.18903333503136
7.790055424,1.0001417067997744,-56.871564256478216
7.81215488,1.0001728302723818,-57.55455999451933
7.834254336,1.0001982836823373,-58.237869744616134
7.856353792,1.0002169414998794,-58.92150703828286
7.878453248,1.0002283996060395,-59.60536307057052
7.900552704,1.0002321454551188,-60.28939170404734
7.92265216,1.0002281423082624,-60.9734504405883
7.944751616,1.000216337340854,-61.65752719203748
7.966851072,1.000197299996606,-62.341471818857
7.988950528,1.0001713887741834,-63.02528232516675
8.011049472,1.0001397912917318,-63.70884851332445
8.033148928,1.0001033774676442,-64.3921043967119
8.055248384,1.0000634866836071,-65.07506760720055
8.07734784,1.0000212952878342,-65.75762993757503
8.099447296,0.9999783653765969,-66.43980212267667
8.121546752,0.9999361961291252,-67.12160579017811
8.143646208,0.9998960526984394,-67.80304538029563
8.165745664,0.9998593732279668,-68.48413136164446
8.18784512,0.9998275597387576,-69.16493154891492
8.209944576,0.9998013770173376,-69.84548632919098
8.232044032,0.999782152805065,-70.52583758468455
8.254143488,0.9997702065439671,-71.206111596117
8.276242944,0.9997660170499755,-71.88636659552715
8.2983424,0.9997698197868099,-72.56667593194398
8.320441856,0.9997815232981452,-73.247136156116
8.342541312,0.9998006944162272,-73.9278266851437
8.364640768,0.999826752512791,-74.60880558428599
8.386740224,0.9998587518749171,-75.29017964151885
8.40883968,0.9998955505677946,-75.97197974741597
8.430939136,0.9999362023024072,-76.6542401225548
8.453038592,0.9999789460149247,-77.33700653620342
8.475138048,1.0000226824645035,-78.02028887091599
8.497237504,1.0000656544613447,-78.7041470317204
8.51933696,1.0001065707379646,-79.38847627331832
8.541436416,1.0001439588047667,-80.07329916115884
8.563535872,1.000176660015637,-80.75857390701438
8.585635328,1.0002034165327789,-81.44420938224694
8.607734784,1.0002234057890569,-82.13017088183855
8.629834752,1.0002358945512906,-82.81636112815988
8.651933696,1.0002403573345509,-83.50273796415875
8.67403264,1.0002368522492011,-84.18916731754896
8.696132608,1.000225165365949,-84.87559978822335
8.718231552,1.0002058978545003,-85.56190796558543
8.74033152,1.0001796764064317,-86.24808406609567
8.762430464,1.0001473854285368,-86.93399821991308
8.784530432,1.0001099535521907,-87.61959943798557
8.806629376,1.000068823424841,-88.30486048209565
8.828729344,1.0000251461496068,-88.9897663092564
8.850828288,0.9999807562914756,-89.67425139711082
8.872928256,0.9999368238990486,-90.35832952041785
8.8950272,0.9998951002678762,-91.04199470009233
8.917127168,0.9998565880841476,-91.72533463100629
8.939226112,0.999823200273363,-92.4083807880689
8.96132608,0.9997955637417686,-93.09111599019869
8.983425024,0.9997749485421105,-93.77369101881733
9.005524992,0.999761918266022,-94.45613631591085
9.027623936,0.9997569481453913,-95.13856991571562
9.049723904,0.9997602611281413,-95.82102026479406
9.071822848,0.999771754124574,-96.5036175291405
9.093922816,0.9997911337323463,-97.1864442850315
9.11602176,0.9998175840470157,-97.86959377190362
9.138121728,0.9998502550906981,-98.55312405676555
9.160220672,0.9998881961779674,-99.23706937755992
9.18232064,0.9999301576951481,-99.92152291671445
9.204419584,0.9999744231041586,-100.6064752432102
9.226519552,1.000019830209687,-101.29200080489954
9.248618496,1.0000646737949503,-101.97801899226005
9.270718464,1.0001074436806827,-102.6646039516599
9.292817408,1.0001467044052392,-103.35169447073079
9.314917376,1.0001811465079662,-104.03920900892955
9.33701632,1.0002095448451531,-104.7271487106317
9.359116288,1.0002310098917426,-105.41540039973256
9.381215232,1.0002446091193595,-106.1039307195049
9.4033152,1.0002499457747434,-106.79263214982605
9.425414144,1.0002469154946487,-107.48138224352644
9.447514112,1.0002355306335338,-108.17014604839699
9.469613056,1.0002161861690004,-108.85879346205239
9.491713024,1.0001893872982381,-109.54728434285745
9.513811968,1.0001562559575197,-110.23552455047941
9.535911936,1.0001177600134052,-110.9234287596757
9.55801088,1.000075162803761,-111.61099351845697
9.580110848,1.0000299311006486,-112.29813603801266
9.602209792,0.99998360552095,-112.9848968374447
9.62430976,0.9999376983370655,-113.67120467905097
9.646408704,0.9998938891078447,-114.35708988379865
9.668508672,0.9998535491668561,-115.04262009300776
9.690607616,0.9998182011956349,-115.7277779571712
9.712707584,0.9997887959995574,-116.41267907136778
9.734806528,0.9997666062275035,-117.09736570257192
9.756906496,0.999752280222053,-117.78190165476005
9.77900544,0.9997463744528118,-118.46639946723755
9.801105408,0.9997491224468088,-119.15094964905852
9.823204352,0.9997603166190794,-119.83561919267962
9.84530432,0.9997797778170343,-120.52050791166232
9.867403264,0.9998067684686052,-121.20571605038113
9.889503232,0.9998404462782021,-121.8913040188881
9.911602176,0.999879644528463,-122.57732776763336
9.933702144,0.9999229815681986,-123.26384382285232
9.955801088,0.9999692078765234,-123.95092137766326
9.977901056,1.000016540636877,-124.63853171907583
10.0,1.0000634357965454,-125.3267155453267
10.022098944,1.000108399999475,-126.01542816275439
10.044198912,1.0001498074580906,-126.70469237664508
10.066297856,1.0001862977183968,-127.3944211089716
10.088397824,1.0002166713150722,-128.08455042501626
10.110496768,1.000239670255542,-128.77505431713035
10.132596736,1.0002546711958344,-129.46580773635662
10.15469568,1.0002610678901305,-130.15672969911284
10.176795648,1.000258773387592,-130.84775585448105
10.198894592,1.0002476688778625,-131.53877410722282
10.22099456,1.0002281378276743,-132.22968183224634
10.243093504,1.0002008511778067,-132.9204052188659
10.265193472,1.0001667611007734,-133.61088596506966
10.287292416,1.000126919353374,-134.3010244923924
10.309392384,1.0000826457677903,-134.99079298915592
10.331491328,1.000035370979434,-135.68012096799643
10.353591296,0.9999869790729904,-136.36901025069133
10.37569024,0.9999387795587555,-137.05745097960286
10.397790208,0.9998925327868852,-137.74544975955575
10.419889152,0.9998499145587803,-138.4330227284467
10.44198912,0.9998122469972321,-139.12024059896103
10.464088064,0.999780872299303,-139.80715564808347
10.486188032,0.9997567780077989,-140.49381584583836
10.508286976,0.9997409549337396,-141.1803222127861
10.530386944,0.9997339046099821,-141.86676938618442
10.552485888,0.9997358990416206,-142.55323323632166
10.574585856,0.9997468928898433,-143.2398455757255
10.5966848,0.9997664358088832,-143.92663282416586
10.618784768,0.9997940655204561,-144.61376016503482
10.640883712,0.9998286723620959,-145.30127209334185
10.66298368,0.9998693696520462,-145.98921177275005
10.685082624,0.9999145723944035,-146.67768792433893
10.707182592,0.9999628329039262,-147.36669454347904
10.729281536,1.0000125378449558,-148.05626921794925
10.751381504,1.0000620063161736,-148.74645561294767
10.773480448,1.0001095843401047,-149.43720767575059
10.795580416,1.0001535221380926,-150.12848134986032
10.81767936,1.0001925156062226,-150.82029128101786
10.839779328,1.0002250485388897,-151.5124984876773
10.861878272,1.0002500611614136,-152.20507947623403
10.88397824,1.0002667758660104,-152.89796237112077
10.906077184,1.000274497381802,-153.5910198202405
10.928177152,1.0002729692867838,-154.28418429960738
10.950276096,1.0002621965908627,-154.97730620018453
10.972376064,1.0002424813727928,-155.67035271775802
10.994475008,1.0002146231617846,-156.3632090808903
11.016574976,1.0001793287574252,-157.0557887596154
11.03867392,1.0001377987410425,-157.74801893143163
11.060773888,1.0000915444239493,-158.439848811523
11.082872832,1.0000421265520116,-159.13121478316432
11.1049728,0.9999910731923889,-159.82212050685158
11.127071744,0.9999401462259316,-160.51253396378064
11.149171712,0.9998911753303491,-161.20246166550302
11.171270656,0.9998457623124153,-161.89195279168368
11.193370624,0.9998053566468145,-162.58103782370227
11.215469568,0.9997714976563595,-163.26977462129392
11.237569536,0.9997452968678588,-163.95824621323803
11.25966848,0.9997276189963396,-164.646543476438
11.281768448,0.9997192174817906,-165.33475208307766
11.303867392,0.9997202748554396,-166.02294474395163
11.32596736,0.9997308432024712,-166.71126663574051
11.348066304,0.9997506616385661,-167.39979870885813
11.370165248,0.9997789998518618,-168.0886163823737
11.392265216,0.999814890773399,-168.77786275934096
11.41436416,0.9998572384171786,-169.4675136670222
11.436464128,0.9999046638502078,-170.15773047160368
11.458563072,0.9999554535858965,-170.84849714879914
11.48066304,1.000007993216204,-171.53986963128432
11.502761984,1.0000604037277365,-172.23185566714145
11.524861952,1.0001110642844868,-172.9244272561476
11.546960896,1.000158119983564,-173.61756671689835
11.569060864,1.0002000734885612,-174.31124203968864
11.591159808,1.000235347546062,-175.0053666816723
11.613259776,1.0002627725094413,-175.6998834900399
11.63535872,1.0002814820924342,-176.39472074404975
11.657458688,1.0002907133466288,-177.0897276562005
11.679557632,1.0002901404905051,-177.7848482348017
11.7016576,1.0002798673193352,-178.47996316975755
11.723756544,1.000259978716713,-179.1749798573229
11.745856512,1.000231226368622,-179.86978961433448
11.767955456,1.0001945442951128,179.43567949325507
11.790055424,1.0001512320956019,178.74155633094668
11.812154368,1.0001025965007477,178.0478300550111
11.834254336,1.0000503267376193,177.35458843399758
11.85635328,0.9999961282731774,176.6618680435503
11.878453248,0.99994197943693,175.96968625232495
11.900552192,0.9998895290437766,175.27801956670945
11.92265216,0.9998407433115692,174.5868375273819
11.944751104,0.9997970989388529,173.89609169033955
11.966851072,0.9997602152160018,173.20573806311293
11.988950016,0.9997314796760409,172.51568994467988
12.011049984,0.9997115111765595,171.8258579990011
12.033148928,0.999701431605098,171.13614757568402
12.055248896,0.9997013984898137,170.44646819988523
12.07734784,0.9997115277658144,169.75666723823838
12.099447808,0.9997315790076837,169.0666785391266
12.121546752,0.9997607284978806,168.3763894414924
12.14364672,0.9997982849675583,167.6857038568551
12.165745664,0.9998428143791285,166.9945426188386
12.187845632,0.9998927252576406,166.30284305310622
12.209944576,0.9999466527993833,165.6105369137343
12.232044544,1.000002679509919,164.91762564646416
12.254143488,1.0000587054421957,164.22408795496312
12.276243456,1.000113159445363,163.52988997864676
12.2983424,1.0001639287589177,162.83510646734186
12.320442368,1.0002094687245102,162.1397674502645
12.342541312,1.0002481276809578,161.44392936417054
12.36464128,1.0002785130258927,160.74767180546678
12.386740224,1.000299677733114,160.05110478251342
12.408840192,1.0003107241723526,159.35431881525324
12.430939136,1.0003113240256962,158.6574056822832
12.453039104,1.0003014461418398,157.96050773654963
12.475138048,1.000281362846712,157.2637224578576
12.497238016,1.0002515578398394,156.56713937908196
12.51933696,1.0002131814761577,155.87086742501734
12.541436928,1.0001674276051948,155.1750063621013
12.563535872,1.0001158813938464,154.47961471647434
12.58563584,1.0000601674357128,153.7847343574003
12.607734784,1.000002127759614,153.0904106497263
12.629834752,0.9999437726768834,152.39667643061574
12.651933696,0.9998871838066387,151.70351427118908
12.67403264,0.9998341626561738,151.0108848430181
12.696132608,0.9997864646690795,150.31876023598852
12.718231552,0.9997458483307751,149.62705047869838
12.74033152,0.9997137310531468,148.935708938273
12.762430464,0.9996911353169636,148.24462817283168
12.784530432,0.9996790137450388,147.5537107028536
12.806629376,0.9996776350347073,146.8628092660748
12.828729344,0.9996872944126008,146.17184003118794
12.850828288,0.9997075938243832,145.4806862213356
12.872928256,0.9997379873144407,144.78923715535632
12.8950272,0.9997774495597009,144.09737832530283
12.917127168,0.9998246381507004,143.40503463387523
12.939226112,0.9998780696003728,142.71213573017522
12.96132608,0.9999358936463105,142.01859262071457
12.983425024,0.9999962268742216,141.32441578070845
13.005524992,1.0000570744143757,140.62953511615862
13.027623936,1.0001161912068874,139.93398976956107
13.049723904,1.0001718101005281,139.23779758002422
13.071822848,1.0002219607171008,138.54101251284092
13.093922816,1.0002647041061208,137.84370141958217
13.11602176,1.000298864404874,137.14592812631892
13.138121728,1.00032299970009,136.4478132409176
13.160220672,1.0003364166254105,135.74945042478632
13.18232064,1.0003384804964814,135.0509551290765
13.204419584,1.0003291372802252,134.35247256157996
13.226519552,1.0003086183279921,133.65409987594447
13.248618496,1.0002775830231003,132.95594318608
13.270718464,1.000236969052922,132.25813577402084
13.292817408,1.0001881295757615,131.56076241955347
13.314917376,1.0001326693828245,130.8638989198381
13.33701632,1.000072477878257,130.16759868125106
13.359116288,1.0000094765691951,129.47193354080662
13.381215232,0.999945840954398,128.77689099983513
13.4033152,0.9998836919092611,128.0824843489624
13.425414144,0.9998251445945827,127.38868479278918
13.447514112,0.9997723534907391,126.69547269446032
13.469613056,0.9997269984448715,126.00272790608018
13.491713024,0.9996905338712804,125.31041082485794
13.513811968,0.9996645890427827,124.61839704502468
13.535911936,0.9996497430505797,123.92656162891801
13.55801088,0.9996467780739154,123.23482230814547
13.580110848,0.9996558145327386,122.5430281828752
13.602209792,0.9996765636235487,121.85105153652007
13.62430976,0.9997086093820065,121.15877560268993
13.646408704,0.9997506927502467,120.4660859817262
13.668508672,0.9998014483838453,119.77288660431115
13.690607616,0.9998593401771113,119.0790947121896
13.712707584,0.9999223988013421,118.38462834127832
13.734806528,0.9999885287352122,117.68945322688884
13.756906496,1.0000555185612978,116.99355926806862
13.77900544,1.0001210152938556,116.29692187079982
13.801105408,1.000182844815052,115.59958573544819
13.823204352,1.0002389731619339,114.90158907722598
13.84530432,1.0002872703427972,114.20300029507764
13.867403264,1.0003262543877969,113.50392618390447
13.889503232,1.0003545933187266,112.80444373593924
13.911602176,1.0003709330509334,112.10469950168024
13.933702144,1.0003748744141114,111.40480163996747
13.955801088,1.0003661430461028,110.70490437067919
13.977901056,1.0003449868524104,110.00509936058108
14.0,1.00031196141494,109.30556816787268
