freq,mag,phase
6.0,1.000991890388353,-16.554277434331958
6.013513728,1.0007515836310807,-17.031974659845744
6.027026944,1.0004771978518037,-17.506739186370808
6.040540672,1.0001806862688392,-17.978138434841256
6.054053888,0.9998752055057986,-18.44597700555755
6.067567616,0.999574990484712,-18.91032737716608
6.081080832,0.9992936366657453,-19.371184580299722
6.09459456,0.999043949771224,-19.828975404208478
6.108108288,0.9988371430866395,-20.284112565396423
6.121621504,0.99868303177433,-20.737202893149053
6.135135232,0.9985885831141887,-21.18883494971275
6.148648448,0.998558220322255,-21.639964875822482
6.162162176,0.9985935615111848,-22.091221768014755
6.175675904,0.9986927074873608,-22.54348867907045
6.18918912,0.9988515292089286,-22.997491475909563
6.202702848,0.9990627639366211,-23.453956310455798
6.216216064,0.9993170024555198,-23.9133900906358
6.229729792,0.9996026255709982,-24.376353914480642
6.243243008,0.9999065181877744,-24.84312136151005
6.256756736,1.0002150214278467,-25.313791576987043
6.270270464,1.0005139666902891,-25.78838176250277
6.28378368,1.0007901009900944,-26.26667853512563
6.297297408,1.0010305919150904,-26.748314518944408
6.310810624,1.0012244112878448,-27.23278662481012
6.324324352,1.0013629496544947,-27.71951654920926
6.33783808,1.001439571845063,-28.207681954932134
6.351351296,1.0014511415967076,-28.69659661305515
6.364865024,1.0013963419783136,-29.18547032474329
6.37837824,1.0012783137751404,-29.67344237984632
6.391891968,1.001102068049587,-30.159815588955347
6.405405184,1.0008751902842783,-30.643892383250495
6.418918912,1.0006081226647565,-31.125145705941087
6.43243264,1.0003129956975025,-31.603129464103638
6.445945856,1.0000028961948004,-32.07756169696054
6.459459584,0.9996921838459053,-32.54840902048717
6.4729728,0.9993948472516282,-33.0156346964474
6.486486528,0.9991245220938885,-33.47956025149599
6.499999744,0.9988935067999919,-33.94057731268252
6.513513472,0.9987123361455974,-34.39921991457389
6.5270272,0.9985893100921963,-34.856133647444004
6.540540416,0.9985302379392428,-35.312136647005296
6.554054144,0.9985380639837684,-35.76796349195718
6.56756736,0.9986122625582937,-36.22446024723377
6.581081088,0.9987497258093064,-36.68244267544681
6.594594816,0.9989441656664266,-37.14260733970864
6.608108032,0.9991869360151311,-37.60562881461439
6.62162176,0.9994667513661831,-38.07205165780096
6.635134976,0.9997714402578333,-38.542265504053525
6.648648704,1.0000866280707732,-39.01647171548247
6.66216192,1.0003984226959992,-39.494671343470294
6.675675648,1.000692503843995,-39.97679933621473
6.689189376,1.0009553072137407,-40.462531052686785
6.702702592,1.001175402986981,-40.95140134160687
6.71621632,1.0013422507223222,-41.4428245745714
6.729729536,1.0014483185949665,-41.936106378997266
6.743243264,1.0014888832478692,-42.43051510200081
6.756756992,1.0014618715632986,-42.92519655610126
6.770270208,1.0013683545105674,-43.419336226292906
6.783783936,1.0012125685058757,-43.91216959979053
6.797297152,1.0010014603890394,-44.40291509543793
6.81081088,1.0007443786385668,-44.89101496805549
6.824324096,1.000452974755483,-45.375931128036456
6.837837824,1.000140447837475,-45.85737174368368
6.851351552,0.999820848651145,-46.33506910119271
6.864864768,0.9995087937711787,-46.8091216773923
6.878378496,0.9992183476663541,-47.279626784382145
6.891891712,0.998962984884773,-47.74698026247389
6.90540544,0.998754114298518,-48.21161289854112
6.918919168,0.9986015204044638,-48.674212322285655
6.932432384,0.9985121029456975,-49.135519807846066
6.945946112,0.9984902109989923,-49.59627512655306
6.959459328,0.9985368746080316,-50.05738179284167
6.972973056,0.9986502292875693,-50.51961895467082
6.986486272,0.9988249449693614,-50.98384562485612
7.0,0.9990533844841312,-51.45072672017729
7.013513728,0.9993251900879928,-51.920848051124146
7.027026944,0.9996277960045602,-52.39469226176782
7.040540672,0.9999479728725232,-52.872522334830364
7.054053888,1.0002708508836895,-53.354515629615435
7.067567616,1.0005820536957186,-53.84059038765177
7.081080832,1.0008670137343318,-54.33052032338225
7.09459456,1.0011132114351335,-54.823910013422626
7.108108288,1.0013091240190826,-55.320187562086595
7.121621504,1.0014462759298124,-55.81870829933176
7.135135232,1.0015178951132766,-56.3187146276006
7.148648448,1.0015205954685948,-56.81940580559693
7.162162176,1.0014546099748893,-57.31991018941977
7.175675904,1.0013222605414154,-57.81938317918484
7.18918912,1.0011296838424526,-58.31710905182213
7.202702848,1.0008855303635584,-58.81238600151083
7.216216064,1.0006008243691706,-59.30456131795853
7.229729792,1.0002879330453738,-59.7933484941778
7.243243008,0.9999614486737031,-60.27838551245712
7.256756736,0.9996361313430542,-60.75963864768968
7.270270464,0.9993265511668268,-61.23716135622911
7.28378368,0.9990469551600559,-61.71126174480734
7.297297408,0.9988099128340447,-62.182364588578295
7.310810624,0.9986264426062891,-62.65108632803703
7.324324352,0.9985050486919114,-63.11807674555613
7.33783808,0.9984512763568526,-63.58420264387513
7.351351296,0.9984677316819792,-64.0502505027887
7.364865024,0.9985538187378014,-64.5171095542184
7.37837824,0.998705743767417,-64.98562629093337
7.391891968,0.9989166678353965,-65.45655662248431
7.405405184,0.9991771226891302,-65.9306043026649
7.418918912,0.999475378293698,-66.40823821158703
7.43243264,0.999797794597302,-66.88988978675602
7.445945856,1.000129936448894,-67.37576561213395
7.459459584,1.0004567662818957,-67.86586279973754
7.4729728,1.000763368900706,-68.36006530017032
7.486486528,1.0010358017993919,-68.85801363441111
7.500000256,1.001261802644505,-69.35922673421027
7.513513472,1.0014309511502724,-69.86306550291519
7.5270272,1.0015356285135502,-70.36879568099717
7.540540416,1.001570917198929,-70.8755925353497
7.554054144,1.0015350162711618,-71.38258759739503
7.56756736,1.0014293050296408,-71.88896195823389
7.581081088,1.001258838361989,-72.39388802488257
7.594594816,1.001030857693785,-72.89657499383858
7.608108032,1.0007555796695184,-73.39639269034168
7.62162176,1.00044555264213,-73.89285779535162
7.635134976,1.0001145576005452,-74.38558701917661
7.648648704,0.9997776360923817,-74.8744383023721
7.66216192,0.999450095921172,-75.35940401189615
7.675675648,0.999146628873373,-75.84071117872335
7.689189376,0.9988813033443094,-76.31870949201854
7.702702592,0.9986660402907002,-76.79392547536887
7.71621632,0.9985111032451636,-77.26705531893742
7.729729536,0.9984231200792733,-77.738896612911
7.743243264,0.9984066320297125,-78.21023675650252
7.756756992,0.99846254816827,-78.68205565255901
7.770270208,0.9985880847235894,-79.155176724216
7.783783936,0.9987780559544907,-79.63040698412875
7.797297152,0.9990238549740096,-80.10849720191172
7.81081088,0.9993143345790079,-80.59010462276144
7.824324096,0.999636379869606,-81.07567669399222
7.837837824,0.9999755433739874,-81.56547749290766
7.851351552,1.0003163594312607,-82.0597018133622
7.864864768,1.0006434943132114,-82.55818570095323
7.878378496,1.0009421131808816,-83.0607227942436
7.891891712,1.001198402763934,-83.56686566786732
7.90540544,1.0014010915062936,-84.07606442919523
7.918919168,1.0015406753096423,-84.58756280801359
7.932432384,1.0016108300769775,-85.10057006404021
7.945946112,1.0016081474530993,-85.61419535330377
7.959459328,1.001532623800104,-86.12760792460821
7.972973056,1.0013876702222984,-86.63988409286121
7.986486272,1.001179589819015,-87.15024155285633
8.0,1.0009175255488154,-87.65793314933791
8.013513728,1.0006132879552023,-88.16240125220197
8.027026944,1.0002805940870645,-88.66318886514375
8.040540672,0.9999343614516124,-89.1600262137681
8.054053888,0.99959032481975,-89.65286748826875
8.067567616,0.9992639015586271,-90.1417653959795
8.081080832,0.9989701985774379,-90.62708582504952
8.09459456,0.998722495355568,-91.10924850807672
8.108108288,0.9985321553972872,-91.58894648437044
8.121621504,0.9984078069209374,-92.06685183970087
8.135135232,0.9983555338603407,-92.54388456781844
8.148648448,0.9983777168184373,-93.02092792400929
8.162162176,0.998473467919671,-93.49887489221177
8.175675904,0.9986385252898785,-93.97863869250648
8.18918912,0.9988658890296441,-94.46099910786279
8.202702848,0.9991449114237645,-94.9466635183126
8.216216064,0.9994633028640608,-95.43621639420222
8.229729792,0.9998065618185547,-95.93005815991037
8.243243008,1.0001593691022463,-96.42830747290115
8.256756736,1.0005056122790899,-96.93111810724332
8.270270464,1.000829559649073,-97.43821368264335
8.28378368,1.0011167191733776,-97.94925887989011
8.297297408,1.0013538265712079,-98.46378388939057
8.310810624,1.0015303864523437,-98.9810413600317
8.324324352,1.0016378741405239,-99.50024139082758
8.33783808,1.0016717118429805,-100.02057443731006
8.351351296,1.0016299576460885,-100.54108527803102
8.364865024,1.0015144084862546,-101.06088131937094
8.37837824,1.001330107611617,-101.57905550592719
8.391891968,1.001085237606071,-102.09489407765132
8.405405184,1.0007905974566595,-102.60764548893205
8.418918912,1.0004594845019632,-103.1167736398209
8.43243264,1.0001067473315872,-103.62197406074789
8.445945856,0.9997481922608342,-104.12301879063342
8.459459584,0.9994002085946899,-104.61995363496548
8.4729728,0.9990784590712478,-105.1129823814907
8.486486528,0.9987976372863496,-105.60250741387571
8.499999744,0.9985706291285101,-106.08913252643845
8.513513472,0.9984077779213796,-106.57353246341668
8.5270272,0.9983167203543956,-107.0565582282628
8.540540416,0.9983016512148335,-107.53914297951626
8.554054144,0.9983635770312027,-108.02222228701525
8.56756736,0.9984997455695566,-108.50669697478281
8.581081088,0.9987041900596972,-108.99344196136038
8.594594816,0.9989677143439777,-109.48331424733787
8.608108544,0.9992785924104297,-109.97686278181516
8.621621248,0.9996228189407863,-110.47468300684801
8.635134976,0.9999849114083067,-110.977013146988
8.648648704,1.0003483246875053,-111.48402675640719
8.662162432,1.0006968621788053,-111.99560744045836
8.67567616,1.001014615162609,-112.511507742433
8.689188864,1.001287271471066,-113.03120149275009
8.702702592,1.0015023056018437,-113.55416727032397
8.71621632,1.0016500519935687,-114.07953826970562
8.729730048,1.0017235122992039,-114.60652499227578
8.743242752,1.00171930785259,-115.1341643147514
8.75675648,1.0016375196995844,-115.66153591403724
8.770270208,1.0014815655873854,-116.18768748925204
8.783783936,1.0012581963818095,-116.71178615569607
8.797297664,1.000977424247146,-117.23303684302162
8.810810368,1.0006516957227862,-117.75081277219694
8.824324096,1.0002958081347146,-118.26468881608034
8.837837824,0.999925422721487,-118.77430472242102
8.851351552,0.9995574623026889,-119.27964836940994
8.86486528,0.9992085215542946,-119.78079015280645
8.878377984,0.9988943889630217,-120.27806752355397
8.891891712,0.998629455633304,-120.77202396232336
8.90540544,0.9984259810226384,-121.26328247611067
8.918919168,0.9982931075091216,-121.75264907036886
8.932432896,0.998237247624684,-122.24108550884175
8.9459456,0.9982610104432538,-122.72949572699818
8.959459328,0.9983635881423766,-123.21887863922085
8.972973056,0.9985404993215253,-123.71019694455268
8.986486784,0.9987838947049626,-124.20426184652558
8.999999488,0.9990829005354848,-124.70186940562905
9.013513216,0.999424141448551,-125.20363235430138
9.027026944,0.9997922027234653,-125.70994172681205
9.040540672,1.000170469168346,-126.22104103595467
9.0540544,1.0005420081230276,-126.73695369815829
9.067567104,1.0008899379885237,-127.25752131748195
9.081080832,1.001198573493108,-127.78229510194853
9.09459456,1.001453736716687,-128.31075606546761
9.108108288,1.0016440582628436,-128.8421645054448
9.121622016,1.0017606856307395,-129.3757287532167
9.13513472,1.0017981635332343,-129.91042816418067
9.148648448,1.0017545961408727,-130.44537936085982
9.162162176,1.0016318681253038,-130.97955728624615
9.175675904,1.001435016855821,-131.51206437787607
9.189189632,1.001172980727255,-132.04197280867064
9.202702336,1.0008572875541912,-132.56864052885743
9.216216064,1.0005019161986304,-133.09142056517555
9.229729792,1.000122920804385,-133.60997730868283
9.24324352,0.9997373235198432,-134.12405328164274
9.256757248,0.9993623681002611,-134.6336916207412
9.270269952,0.9990152169651496,-135.13913272852892
9.28378368,0.9987115477897858,-135.64077546126774
9.297297408,0.9984653737881511,-136.13925959865873
9.310811136,0.9982877932261479,-136.63528928837778
9.32432384,0.9981872990104795,-137.12984117445183
9.337837568,0.998168469060517,-137.623855393509
9.351351296,0.9982325744150135,-138.11833299884879
9.364865024,0.998376668538221,-138.61427725017788
9.378378752,0.9985946804882659,-139.1126268419991
9.391891456,0.9988767781067194,-139.6142933336926
9.405405184,0.9992103964012431,-140.11991812368342
9.418918912,0.9995805773199504,-140.63007412424295
9.43243264,0.9999706991310869,-141.1451028930744
9.445946368,1.000363110883502,-141.6651272087838
9.459459072,1.000740236716011,-142.19009959473104
9.4729728,1.001084925957273,-142.71970957444324
9.486486528,1.0013817285097317,-143.25349076547974
9.500000256,1.0016169401799984,-143.79071522260006
9.513513984,1.001780026062352,-144.330624991117
9.527026688,1.0018633533948522,-144.87232229511892
9.540540416,1.0018629974883733,-145.41477286945945
9.554054144,1.0017785506020846,-145.95694000582702
9.567567872,1.0016138791589682,-146.4978553455363
9.581080576,1.0013760160504477,-147.03657050390208
9.594594304,1.0010753016185074,-147.57227653753185
9.608108032,1.0007252753512814,-148.10422532296022
9.62162176,1.0003414255920335,-148.63196224700334
9.635135488,0.9999410507880557,-149.15513267754457
9.648648192,0.9995420474495825,-149.6736197040544
9.66216192,0.999162488098829,-150.18755832295474
9.675675648,0.9988195651953672,-150.6973051390826
9.689189376,0.9985289202369583,-151.20332508334118
9.702703104,0.9983039610811434,-151.70640155825598
9.716215808,0.9981548178687764,-152.20735815708733
9.729729536,0.9980887468808672,-152.70720528793214
9.743243264,0.9981088513585418,-153.20692986275247
9.756756992,0.9982145581837198,-153.70763408178743
9.77027072,0.998401234065729,-154.2103337030968
9.783783424,0.9986606934812896,-154.7159554300231
9.797297152,0.9989813771974729,-155.22534889688083
9.81081088,0.9993491032782733,-155.7391518125173
9.824324608,0.9997472528909818,-156.25786276731057
9.837838336,1.0001579195936579,-156.78174987575792
9.85135104,1.0005627186855117,-157.31084287839172
9.864864768,1.0009433423711827,-157.8449741399169
9.878378496,1.001282506725129,-158.38371001153246
9.891892224,1.0015650598945776,-158.92649044099124
9.905404928,1.0017778314437003,-159.4725393427425
9.918918656,1.0019113587822137,-160.02096451268048
9.932432384,1.0019592320168893,-160.57074121182876
9.945946112,1.0019191371851934,-161.12082255494406
9.95945984,1.001792526550091,-161.6701674358031
9.972972544,1.0015848636881628,-162.21771842769076
9.986486272,1.001305199785859,-162.7625690850315
10.0,1.0009658829321737,-163.30389198013768
10.013513728,1.0005818221349516,-163.84105381688062
10.027027456,1.0001703574957428,-164.3736210294742
10.04054016,0.9997497733182981,-164.901288875611
10.054053888,0.9993390784013643,-165.42413222302721
10.067567616,0.9989567888656637,-165.94230981332575
10.081081344,0.9986203034417125,-166.45627851592778
10.094595072,0.9983449572390152,-166.96669829225078
10.108107776,0.998143329968658,-167.4743758411806
10.121621504,0.9980250991648683,-167.98029436885122
10.135135232,0.997995599297097,-168.48546656006158
10.14864896,0.9980564983289183,-168.99102259015666
10.162161664,0.9982053630540272,-169.49806397456408
10.175675392,0.9984357598329548,-170.0076160795515
10.18918912,0.9987375328228859,-170.52060789317304
10.202702848,0.9990970903347246,-171.03788445916356
10.216216576,0.9994986764193968,-171.5600043056948
10.22972928,0.9999241166606668,-172.08740692650076
10.243243008,1.0003543450222643,-172.62025975499432
10.256756736,1.00076990884008,-173.15851274974747
10.270270464,1.0011522915489215,-173.7018610253946
10.283784192,1.0014839242260523,-174.24980950845517
10.297296896,1.0017498995700354,-174.80164470347233
10.310810624,1.0019380865610807,-175.35649326818373
10.324324352,1.002039852436858,-175.91337248136946
10.33783808,1.002050221080021,-176.47120287710305
10.351351808,1.001968317756587,-177.0288559683646
10.364864512,1.0017977089167347,-177.5852596361037
10.37837824,1.0015457709620912,-178.13931999549862
10.391891968,1.0012233953784593,-178.69017651659377
10.405405696,1.0008446470331103,-179.23700887377078
10.418919424,1.0004266860332327,-179.7792245073834
10.432432128,0.9999878926586001,179.68355904614685
10.445945856,0.999547893782887,179.15148244323177
10.459459584,0.9991267597604601,178.62446369828612
10.472973312,0.9987433153369663,178.10215922882605
10.486486016,0.998415193380758,177.5840260978735
10.499999744,0.9981572383242089,177.06928708463423
10.513513472,0.9979815652024875,176.55704748598262
10.5270272,0.9978963076628341,176.04621578050697
10.540540928,0.9979055785154648,175.5356814235908
10.554053632,0.9980095936381707,175.02427466297033
10.56756736,0.9982035107031741,174.51087294458162
10.581081088,0.9984793101914741,173.9943916962562
10.594594816,0.998824514016434,173.4738953916845
10.608108544,0.9992239806976083,172.94864813163315
10.621621248,0.9996598810978763,172.41810025206792
10.635134976,1.0001124083539683,171.88189646512154
10.648648704,1.0005615358204456,171.3399617634846
10.662162432,1.0009870778122667,170.7924547863111
10.67567616,1.0013695682120345,170.23980441920472
10.689188864,1.0016919115606693,169.68258804512308
10.702702592,1.0019393895599567,169.1216521389642
10.71621632,1.0021007463837284,168.55797967433958
10.729730048,1.0021682303688693,167.99265082482214
10.743242752,1.0021386240946053,167.42681394710877
10.75675648,1.0020128081665989,166.86165448234158
10.770270208,1.0017961658229466,166.29830531740419
10.783783936,1.0014979212329926,165.73780028596778
10.797297664,1.0011312070350562,165.1810932985811
10.810810368,1.0007120241969305,164.62889346308617
10.824324096,1.0002592732983886,164.08178815942233
10.837837824,0.9997928033830806,163.54006336081602
10.851351552,0.9993338768761287,163.0037513917751
10.86486528,0.9989028375962141,162.47271241090402
10.878377984,0.9985195360902595,161.9464178781391
10.891891712,0.9982014716844323,161.42427721082524
10.90540544,0.99796297221851,160.90535776024603
10.918919168,0.9978154790311462,160.38863925453904
10.932432896,0.9977656964268381,159.8729490785948
10.9459456,0.997816496180574,159.3570931075841
10.959459328,0.9979658718242886,158.83982409269873
10.972973056,0.9982075581182039,158.32000613725543
10.986486784,0.9985308604908559,157.7965256037915
11.000000512,0.9989216494589681,157.26848679075434
11.013513216,0.9993624357276336,156.73515183574523
11.027026944,0.9998336431340763,156.19605329702898
11.040540672,1.000314022923039,155.6509054512976
11.0540544,1.0007820907097786,155.09974915471153
11.067567104,1.0012168500652479,154.54287435041678
11.081080832,1.0015986379407797,153.98074729781695
11.09459456,1.0019101301319016,153.4141671545191
11.108108288,1.0021371171182083,152.84403780177715
11.121622016,1.0022691234818486,152.271465060036
11.13513472,1.0022997431534517,151.69763231474613
11.148648448,1.0022273587826687,151.1237657505166
11.162162176,1.002054651098244,150.55109122720575
11.175675904,1.0017889412139145,149.98081513978278
11.189189632,1.0014416816879919,149.4139772898981
11.202702336,1.0010280946320318,148.85151392122097
11.216216064,1.0005664622399821,148.29411188809857
11.229729792,1.0000772906459214,147.7422510159931
11.24324352,0.9995822672168136,147.1961879787005
11.256757248,0.9991036035439581,146.6558600111922
11.270269952,0.9986632266166391,146.12094125182688
11.28378368,0.9982808556538283,145.59086328366763
11.297297408,0.9979740981242086,145.06484074077264
11.310811136,0.997757189272784,144.54186861463765
11.32432384,0.9976402694214819,144.0207723611302
11.337837568,0.9976289868964966,143.5003190450178
11.351351296,0.9977244544674062,142.97916739280336
11.364865024,0.9979228335942789,142.45606269444343
11.378378752,0.9982155002928543,141.92979064238207
