freq,mag,phase
6.0,0.9996938026001035,81.77734927297892
6.002287616,0.999588911285623,81.61032769856358
6.004575232,0.9995102295235109,81.4446302786798
6.006862848,0.9994624293150671,81.27988918636318
6.009150464,0.9994486909471264,81.11562860363168
6.011438592,0.999469793172765,80.95131816315315
6.013726208,0.9995245481212703,80.78649963431283
6.016013824,0.9996095847029334,80.62066578666551
6.01830144,0.999719403732554,80.45345048499858
6.020589056,0.999847157911282,80.28451615687227
6.022876672,0.9999848261852423,80.11369218071935
6.025164288,1.000123753546855,79.94088331853388
6.027451904,1.0002549973280979,79.76610655519475
6.029740032,1.000370467422933,79.58956017542535
6.032027648,1.0004627014068972,79.41154773044606
6.034315264,1.000525907116653,79.23242937021729
6.03660288,1.000556234832279,79.0526274261071
6.038890496,1.0005513980197265,78.87266246055621
6.041178112,1.0005118989090576,78.69302214531305
6.043465728,1.000440185035026,78.51419847945951
6.045753344,1.0003406636020273,78.33663500133571
6.04804096,1.0002196669082988,78.16070887592993
6.050329088,1.0000846203043894,77.98661748788219
6.052616704,0.9999442471897525,77.81456459946116
6.05490432,0.9998073731717971,77.6445155510865
6.057191936,0.9996825692899236,77.47641565317386
6.059479552,0.9995777123321407,77.30997653968583
6.061767168,0.9994995223633707,77.14491385057278
6.064054784,0.9994530810120338,76.98076185772149
6.0663424,0.9994411929936723,76.81703927739899
6.068630016,0.9994646101245053,76.65328297882824
6.070918144,0.9995220990362795,76.48895605140832
6.07320576,0.9996099207451651,76.32360230232149
6.075493376,0.9997225454677319,76.15678775952968
6.077780992,0.999853054329763,75.98824580684426
6.080068608,0.9999929336624691,75.81774577373577
6.082356224,1.0001336539978183,75.64523188485809
6.08464384,1.0002660557512835,75.47075806619084
6.086931456,1.0003819667211284,75.29449072497593
6.089219584,1.0004740094145907,75.11673079750183
6.0915072,1.0005363555515818,74.93786380305944
6.093794816,1.0005649857076915,74.75835329632808
6.096082432,1.0005580287308113,74.57870584283587
6.098370048,1.0005160133796185,74.39941890225688
6.100657664,1.00044142868668,74.2209849170499
6.10294528,1.0003390621313568,74.04383840165801
6.105232896,1.0002152312773764,73.86835396388065
6.107520512,1.0000777684533293,73.69478128411474
6.10980864,0.999935353336805,73.52323796159753
6.112096256,0.999796896705354,73.35377549705008
6.114383872,0.9996713269660353,73.18623429022912
6.116671488,0.9995663916584858,73.02037325352924
6.118959104,0.9994889143035101,72.85587105500376
6.12124672,0.9994436860202873,72.69228006290054
6.123534336,0.9994336921590848,72.52911418622203
6.125821952,0.9994595983875136,72.3658289994446
6.128109568,0.9995198492222055,72.20196149025799
6.130397696,0.9996106236241246,72.03702193300539
6.132685312,0.9997261331514699,71.87057305395956
6.134972928,0.9998592003242781,71.70236547735004
6.137260544,1.0000015154200927,71.53213333835207
6.13954816,1.0001438494016983,71.35988910212775
6.141835776,1.0002775021044352,71.1856454773254
6.144123392,1.0003937865484804,71.00961674941527
6.146411008,1.0004854292857432,70.83207223585488
6.148699136,1.0005467444639868,70.65342992112126
6.150986752,1.0005735864378973,70.47418714482279
6.153274368,1.0005645170817543,70.29479245376793
6.155561984,1.000519794256937,70.11581032549265
6.1578496,1.0004424044375109,69.93771624187376
6.160137216,1.0003369881282567,69.76096158887631
6.162424832,1.0002104238639498,69.58589644101272
6.164712448,1.0000704552398558,69.41278146016359
6.167000064,0.9999259704004005,69.24175021228194
6.169288192,0.9997861250593674,69.07279360051055
6.171575808,0.999659708325258,68.90577425204037
6.173863424,0.9995547944421603,68.74046328227615
6.17615104,0.9994780399836902,68.57648649782683
6.178438656,0.9994342052761126,68.41341619216765
6.180726272,0.9994263210039975,68.25071979384663
6.183013888,0.9994546573898578,68.08789993937964
6.185301504,0.9995177599388325,67.92444473909813
6.18758912,0.9996114106122441,67.75984634990327
6.189877248,0.9997298832378333,67.59375592649779
6.192164864,0.9998656935672107,67.42579785180705
6.19445248,1.0000102509372055,67.25583361595362
6.196740096,1.0001543861039113,67.08379314243905
6.199027712,1.0002890630600056,66.90973269637614
6.201315328,1.0004057746184059,66.7338638833331
6.203602944,1.0004970544700929,66.55650627707753
6.20589056,1.00055724776792,66.37805988982991
6.208178688,1.0005824075871097,66.19899174439456
6.210466304,1.0005708982233408,66.01983286367232
6.21275392,1.0005235138843012,65.84111299928394
6.215041536,1.0004431357706978,65.66334853146304
6.217329152,1.0003347566130985,65.48692685820491
6.219616768,1.0002052883135075,65.31226765176075
6.221904384,1.0000627964502327,65.13956920985447
6.224192,0.9999163135133289,64.9689929876887
6.226479616,0.9997750349810911,64.80049880951503
6.228767744,0.9996478667463158,64.63399352855463
6.23105536,0.9995430167290162,64.4691751278294
6.233342976,0.9994670302138663,64.30566881231101
6.235630592,0.9994247080388983,64.14306079117279
6.237918208,0.999418850521189,63.98082672405195
6.240205824,0.9994499214311847,63.81841897238368
6.24249344,0.9995157639113892,63.655313815283264
6.244781056,0.9996125289616998,63.491047588162765
6.247068672,0.9997339955755291,63.32520764042154
6.2493568,0.9998724994451266,63.157505456084785
6.251644416,1.0000193753902449,62.98772966605833
6.253932032,1.000165251368389,62.8158520766581
6.256219648,1.0003009929931215,62.641946580530444
6.258507264,1.0004179926263697,62.46619856606762
6.26079488,1.000508877162129,62.28896403024893
6.263082496,1.0005678498748807,62.11066264708422
6.265370112,1.000591193151477,61.9317448778412
6.26765824,1.0005773688533646,61.752790360407595
6.269945856,1.0005270650843257,61.57429336509388
6.272233472,1.0004436906678358,61.3967652663267
6.274521088,1.0003323330673444,61.22067528015143
6.276808704,1.0002000171953023,61.04633497291411
6.27909632,1.0000549161476093,60.87402769831174
6.281383936,0.9999063631610872,60.703862707031234
6.283671552,0.9997637348161145,60.53582449648983
6.285959168,0.9996359142162208,60.36975399050669
6.288247296,0.9995311052388308,60.20538387186041
6.290534912,0.9994559269461062,60.042348447070715
6.292822528,0.9994151727235874,59.88016754318333
6.295110144,0.9994115968570506,59.718316124973846
6.29739776,0.9994452031629784,59.55627968745975
6.299685376,0.9995140546687767,59.393500314154004
6.301972992,0.9996138281871161,59.229512742906174
6.304260608,0.9997383340241521,59.06389732739189
6.306548224,0.9998794922129649,58.89636574552319
6.308836352,1.000028681649472,58.72674735961608
6.311123968,1.0001763347706194,58.55497133973424
6.313411584,1.0003130552734567,58.38117405801821
6.3156992,1.0004303461371333,58.2055098405068
6.317986816,1.0005207251284984,58.02835312742684
6.320274432,1.0005784027209168,57.85014844834669
6.322562048,1.0005997974012744,57.67135064767927
6.324849664,1.0005834659777952,57.492521771914596
6.327137792,1.0005303974019106,57.314203169040276
6.329425408,1.0004439862357892,57.13692077626733
6.331713024,1.0003294539536913,56.96107610842405
6.33400064,1.0001942151052543,56.78706236732967
6.336288256,1.0000466093928728,56.61509153976513
6.338575872,0.9998960388653367,56.44530487098452
6.340863488,0.9997520469429663,56.27766362872748
6.343151104,0.9996235687035607,56.112004650252295
6.34543872,0.9995189437431244,55.94805947082237
6.347726848,0.9994447038369914,55.78544257514714
6.350014464,0.9994056217659631,55.6236299468353
6.35230208,0.9994041503340656,55.46214579237479
6.354589696,0.9994405534422695,55.30041685289837
6.356877312,0.999512490660682,55.13789066868256
6.359164928,0.999615422295413,54.97412514134553
6.361452544,0.9997429836845834,54.80870680036588
6.36374016,0.9998868934698902,54.64132115607762
6.366027776,1.00003832972566,54.471791406962986
6.368315904,1.0001876654778066,54.30010187562709
6.37060352,1.0003254795247483,54.12633105832177
6.372891136,1.0004429946543556,53.95069621677013
6.375178752,1.0005327856616317,53.77359350769893
6.377466368,1.0005890605726702,53.59541799896783
6.379753984,1.0006085753747884,53.416689168367064
6.3820416,1.0005897020152446,53.23798515793346
6.384329216,1.0005337140706367,53.05979983779958
6.386617344,1.0004441559418433,52.88267995927971
6.38890496,1.0003265291544126,52.707064077349074
6.391192576,1.0001882842337453,52.53330413444087
6.393480192,1.0000381706311958,52.3616502109518
6.395767808,0.9998855960873024,52.192217381725456
6.398055424,0.9997401536194626,52.02490686705095
6.40034304,0.9996110888844701,51.859631317012564
6.402630656,0.9995066657441524,51.69606802614538
6.404918272,0.9994334414422398,51.533796784832546
6.4072064,0.9993959734788705,51.37233205464403
6.409494016,0.9993969641254788,51.211144896354625
6.411781632,0.9994361237050852,51.04968314831173
6.414069248,0.9995111218248599,50.88740002032662
6.416356864,0.9996172392004734,50.723820134716426
6.41864448,0.9997478548160588,50.55853481205818
6.420932096,0.9998945702581787,50.39123365899242
6.423219712,1.0000483391555934,50.221762337568244
6.425507328,1.0001993227019397,50.050081038552804
6.427795456,1.0003380016349575,49.87629183175821
6.430083072,1.0004557285533644,49.70066733256175
6.432370688,1.000544838056545,49.52355124485248
6.434658304,1.00059986617693,49.34537070290113
6.43694592,1.0006171990946233,49.16668076961623
6.439233536,1.0005957406368338,48.98801586813098
6.441521152,1.000536810411844,48.80994590314879
6.443808768,1.000444011700609,48.63296786954492
6.446096896,1.0003231492600735,48.457530186994376
6.448384512,1.0001819931481,48.28399444679279
6.450672128,1.0000293158591107,48.1126183947724
6.452959744,0.9998746628728132,47.94345582152347
6.45524736,0.9997279680216299,47.77648628990446
6.457534976,0.9995984573811826,47.61153830747369
6.459822592,0.9994941857552178,47.44829452182504
6.462110208,0.9994219879963656,47.28635121305779
6.464397824,0.9993863760703531,47.12517610508404
6.466685952,0.999389621457472,46.96426358926202
6.468973568,0.9994316924405393,46.80303162143663
6.471261184,0.9995097870195508,46.640944115591985
6.4735488,0.9996191544305121,46.4774834346129
6.475836416,0.9997528522950067,46.31228690660907
6.478124032,0.9999024207794962,46.14500881021888
6.480411648,1.000058494455512,45.97554298284882
6.482699264,1.0002111166193906,45.8038330309955
6.48498688,1.000350807005139,45.63001331210662
6.487275008,1.000468539903928,45.454319674174045
6.489562624,1.0005570249453102,45.27713031831947
6.49185024,1.0006105381655297,45.098916562073356
6.494137856,1.000625696172218,44.92019850582226
6.496425472,1.0006015664998051,44.74155940664684
6.498713088,1.000539582684508,44.563517765322594
6.501000704,1.0004435831686251,44.38664314544015
6.50328832,1.0003195927096222,44.21136523551808
6.505576448,1.0001753852260027,44.03802124338691
6.507864064,1.0000200482184711,43.86685441807248
6.51015168,0.9998634898739627,43.697944270347584
6.512439296,0.9997154460278354,43.5312634307554
6.514726912,0.9995854168185885,43.36660697610478
6.517014528,0.9994815408508344,43.203650259782464
6.519302144,0.9994103919583043,43.0419834271012
6.52158976,0.999376730794801,42.881068414928606
6.523877376,0.99938247447315,42.72036812827561
6.526165504,0.9994274350887654,42.55931466430811
6.52845312,0.9995087764077782,42.39736440420699
6.530740736,0.9996213579893526,42.23398246434149
6.533028352,0.9997582174854146,42.06880919576483
6.535315968,0.9999105934397106,41.9015450665237
6.537603584,1.0000689334399409,41.73202489172437
6.5398912,1.0002233003404324,41.560240136654095
6.542178816,1.000363823004295,41.38631340077957
6.544466432,1.0004816417373856,41.21052607751701
6.54675456,1.0005693556794202,41.033226608160696
6.549042176,1.0006213725047366,40.85493971515324
6.551329792,1.000634389847631,40.67615738216503
6.553617408,1.00060742384923,40.497479191420375
6.555905024,1.000542282979623,40.31946930620857
6.55819264,1.0004430187729971,40.14263712305555
6.560480256,1.0003156533843642,39.96746222512209
6.562767872,1.000168534013034,39.794259820859864
6.565056,1.0000106344705069,39.623265410586846
6.567343616,0.9998520497682079,39.454581961105454
6.569631232,0.9997027111611533,39.28813657748948
6.571918848,0.9995722326145564,39.12372013196301
6.574206464,0.9994686914548296,38.96102285260567
6.57649408,0.99939879008853,38.7995827119558
6.578781696,0.9993669515531751,38.63887548695411
6.581069312,0.9993752463767938,38.47837809189588
6.583356928,0.9994232260341853,38.317461111034575
6.585645056,0.9995077718986743,38.155573131453316
6.587932672,0.9996237935855972,37.99224131858318
6.590220288,0.9997637929787092,37.82706682068278
6.592507904,0.9999189707900209,37.659733429073334
6.59479552,1.0000796949122568,37.4901268848618
6.597083136,1.0002356110695043,37.318210807261735
6.599370752,1.000377015697995,37.1441537483605
6.601658368,1.0004948201963424,36.96820036088081
6.603945984,1.000581766046692,36.790755132870984
6.606234112,1.000632181984861,36.61231150228001
6.608521728,1.0006429015504497,36.43343465357773
6.610809344,1.000613183992031,36.254690204632844
6.61309696,1.0005448449171703,36.076645387632375
6.615384576,1.0004422182584036,35.89983946861496
6.617672192,1.0003116767071414,35.72471801229281
6.619959808,1.0001614167674076,35.551615286847294
6.622247424,1.0000009282294426,35.38078703495616
6.624535552,0.9998403530520268,35.21226268183958
6.626823168,0.9996898744093378,35.04602270463388
6.629110784,0.9995588672246981,34.881807970703
6.6313984,0.9994558840276869,34.71930458466614
6.633686016,0.9993872082437636,34.55806376800198
6.635973632,0.999357419714154,34.39752044024416
6.638261248,0.9993682736750904,34.23714420902017
6.640548864,0.999419239365223,34.07631288938732
6.64283648,0.9995071706075216,33.91447679572597
6.645124608,0.999626487514757,33.7511491587074
6.647412224,0.9997697581426673,33.58589381487145
6.64969984,0.9999277751224825,33.418467619414436
6.651987456,1.0000907143458757,33.248699857942405
6.654275072,1.0002482566052453,33.07662884514316
6.656562688,1.0003904745636785,32.902364523287645
6.658850304,1.0005083168509574,32.72622820181525
6.66113792,1.0005943861225535,32.54858074906807
6.663426048,1.0006430675429174,32.36996434224248
6.665713664,1.0006514710316348,32.19091907133713
6.66800128,1.0006188298942191,32.012059411783525
6.670288896,1.0005472707712189,31.833935808993463
6.672576512,1.0004412819993402,31.65709703247396
6.674864128,1.0003074035554167,31.481991346654766
6.677151744,1.0001540419119308,31.308967853881562
6.67943936,0.9999909752034521,31.13822833579441
6.681726976,0.9998284844795278,30.969847517866157
6.684015104,0.999676734439283,30.80376370477728
6.68630272,0.9995453323419591,30.639738936700766
6.688590336,0.9994427947941029,30.477389586935992
6.690877952,0.9993753962541386,30.316292361620338
6.693165568,0.9993476394484088,30.155891989632057
6.695453184,0.9993612216939672,29.995592337038484
6.6977408,0.9994153193989502,29.834802414128028
6.700028416,0.9995066382151238,29.672974168109263
6.702316032,0.9996293764183899,29.50957010168591
6.70460416,0.9997758762389315,29.344232306848532
6.706891776,0.9999367606442302,29.17663809271028
6.709179392,1.0001019969964382,29.006700573051614
6.711467008,1.0002611709236755,28.834375911304495
6.713754624,1.0004041106830444,28.659885939851417
6.71604224,1.000521903948545,28.483482177727367
6.718329856,1.0006069723120874,28.305606986129302
6.720617472,1.0006540209255708,28.126763302385232
6.7229056,1.000659976332002,27.94754127896141
6.725193216,1.000624426929101,27.768510021547073
6.727480832,1.0005495667679163,27.590279862598788
6.729768448,1.0004400615040425,27.41338752603254
6.732056064,1.0003028200944242,27.238248286475397
6.73434368,1.0001464170348047,27.06524684138655
6.736631296,0.9999807669474037,26.8945723400046
6.738918912,0.9998163554914766,26.72629269604816
6.741206528,0.9996633793920482,26.560305858182232
6.743494656,0.9995317068015113,26.396406425983205
6.745782272,0.9994296459989045,26.23419300317146
6.748069888,0.9993636259817535,26.073202561831344
6.750357504,0.9993379352607882,25.912884274491716
6.75264512,0.9993542165315388,25.752621917401378
6.754932736,0.99941155589979,25.59184358189012
6.757220352,0.9995062426628036,25.429952292046377
6.759507968,0.9996323918650836,25.26645461127022
6.761795584,0.9997822065265498,25.100945535147716
6.764083712,0.9999460025128546,24.93317715900047
6.766371328,1.000113544064863,24.762982886988446
6.768658944,1.0002742705839809,24.59039783594229
6.77094656,1.000417921843782,24.41561986107812
6.773234176,1.0005356490320898,24.238940362011363
6.775521792,1.0006197270040196,24.0607538594724
6.777809408,1.0006649493288453,23.88165902265
6.780097024,1.0006684714180072,23.702176488591697
6.782385152,1.0006299361271436,23.522953317893876
6.784672768,1.0005517192865128,23.344561572650754
6.786960384,1.0004388136305697,23.16754338280557
6.789248,1.0002981106405198,22.99235884690471
6.791535616,1.0001386453386887,22.819347256771053
6.793823232,0.9999704226977094,22.648678166387057
6.796110848,0.9998039137018955,22.480472196130354
6.798398464,0.9996497878808773,22.314554831310833
6.80068608,0.9995178117634792,22.150734445515962
6.802974208,0.9994163990954061,21.98860915739466
6.805261824,0.9993517440150762,21.827673105486145
6.80754944,0.9993282181773413,21.66739623621663
6.809837056,0.9993473310706159,21.50714553908441
6.812124672,0.9994078602229259,21.346301662121856
6.814412288,0.9995061449310498,21.184329119428533
6.816699904,0.9996358214437875,21.020690171124606
6.81898752,0.9997887619840808,20.85497393376564
6.821275136,0.9999554314777647,20.68696307001935
6.823563264,1.000125238944874,20.516488811188456
6.82585088,1.0002875864507836,20.343583839240644
6.828138496,1.0004320132108424,20.168463135475054
6.830426112,1.0005494485594,19.99144936671412
6.832713728,1.0006325939118579,19.812949065515568
6.835001344,1.0006760208522474,19.633534985320072
6.83728896,1.0006769124763033,19.453758181897044
6.839576576,1.00063530448845,19.27430314962773
6.841864704,1.0005536809456315,19.095710848878394
6.84415232,1.0004371235771283,18.91854679952431
6.846439936,1.000293180278845,18.74325465591009
6.848727552,1.0001304782604659,18.57017315903545
6.851015168,0.9999596787981421,18.399512146852345
6.853302784,0.9997912370782092,18.231285511848416
6.8555904,0.999636005110154,18.06544048060686
6.857878016,0.9995037639117117,17.901660727562597
6.860165632,0.9994028594332443,17.7395685369588
6.86245376,0.9993397517992776,17.57866204143165
6.864741376,0.9993184946888058,17.418384456435938
6.867028992,0.9993404344285197,17.258075958005584
6.869316608,0.9994042653159764,17.0971517350393
6.871604224,0.9995060279767884,16.935044398127307
6.87389184,0.9996392035912133,16.77119673196144
6.876179456,0.9997954902067427,16.605256691319223
6.878467072,0.9999650925488757,16.436936428618214
6.880754688,1.0001372188268915,16.266135640573573
6.883042816,1.000300995719835,16.0928728547042
6.885330432,1.0004462297374774,15.917382061652404
6.887618048,1.0005634952477502,15.739979332980575
6.889905664,1.0006454068844508,15.561101100076243
6.89219328,1.0006869501440356,15.381317855820251
6.894480896,1.0006853260277497,15.201233886021893
6.896768512,1.0006405620730994,15.021490579864572
6.899056128,1.000555519992945,14.84266662586802
6.901344256,1.0004354401816664,14.665298510397072
6.903631872,1.0002878883338042,14.489867943307027
6.905919488,1.0001221529673068,14.316692325978345
6.908207104,0.9999486504714554,14.145975840873009
6.91049472,0.9997784020575267,13.977738867944279
6.912782336,0.9996219195765599,13.811861752505605
6.915069952,0.9994895172344563,13.64810567405157
6.917357568,0.9993892616711197,13.486010764224087
6.919645184,0.9993276889567407,13.325084371660354
6.921933312,0.9993087712266044,13.164755003308095
6.924220928,0.999333637912679,13.004372568541402
6.926508544,0.9994007778719267,12.843329221066512
6.92879616,0.9995060792649801,12.681007762929456
6.931083776,0.999642836340947,12.5169380225188
6.933371392,0.9998024730235371,12.350705616953473
