freq,mag,phase
6.0,0.9999999475648598,-120.78402916979907
6.041025536,0.9999935539478497,-122.9145084610381
6.082051072,0.9999876041787107,-125.04502012538254
6.12307712,0.9999817474358712,-127.17558296166878
6.164102656,0.9999761409707507,-129.30611188955407
6.205128192,0.9999706801214173,-131.43663990658408
6.246153728,0.9999654989520296,-133.56703519907123
6.287179264,0.9999606302808492,-135.69735528517378
6.328205312,0.9999561372203162,-137.82758178677494
6.369230848,0.9999520323875801,-139.95758960200317
6.410256384,0.9999483365255505,-142.08743018188582
6.45128192,0.999945228990387,-144.21704268079588
6.492307456,0.9999424991364261,-146.34640656433749
6.533333504,0.9999405133405332,-148.47548204464283
6.57435904,0.9999389215821246,-150.60425434172262
6.615384576,0.9999379031183409,-152.73272674399738
6.656410112,0.9999375809671146,-154.8608031176331
6.697435648,0.9999377935561385,-156.9885079393976
6.738461696,0.9999387424058978,-159.11580095584978
6.779487232,0.9999401650128253,-161.24265174796642
6.820512768,0.9999422609222689,-163.3690357322751
6.861538304,0.9999449685304708,-165.4949509651905
6.902564352,0.9999482078230062,-167.62035653220175
6.943589888,0.9999519727576774,-169.74519456656182
6.984615424,0.9999562155174302,-171.86948022307155
7.02564096,0.9999610646149258,-173.99317506297905
7.066666496,0.9999662426669663,-176.1162724156303
7.107692544,0.999971788260263,-178.2387568124101
7.14871808,0.9999777819135958,179.6394124493021
7.189743616,0.99998397997455,177.51828652488322
7.230769152,0.9999904675449979,175.39782301384116
7.271794688,0.9999971241616273,173.27809408069456
7.312820736,1.0000039052893235,171.15909256111888
7.353846272,1.0000106966493199,169.04085591855667
7.394871808,1.0000176735576227,166.92342048687473
7.435897344,1.0000243522676306,164.80679477581106
7.47692288,1.0000309975743045,162.69097961087425
7.517948928,1.000037407580224,160.5760159035646
7.558974464,1.0000435874413856,158.46191438163453
7.6,1.0000493868014408,156.34869658276637
7.641025536,1.0000547776212187,154.23641534039797
7.682051072,1.00005973427736,152.1250379591883
7.72307712,1.0000642607142878,150.01461249698494
7.764102656,1.0000682726698729,147.9051170904805
7.805128192,1.0000716767213769,145.79666454795725
7.846153728,1.0000743837966817,143.68917663162864
7.887179264,1.0000765451808191,141.58270865278044
7.928205312,1.0000779851082362,139.47725882975672
7.969230848,1.0000788567013126,137.37289181802248
8.010256384,1.00007886635407,135.2695745004007
8.05128192,1.0000781341635,133.1673392217357
8.092307456,1.0000767778057602,131.06621548222435
8.133333504,1.0000746261451257,128.96621297217374
8.17435904,1.000071872313652,126.86729348187988
8.215384576,1.0000683667937298,124.7695294352993
8.256410112,1.0000641884016688,122.672919461482
8.297435648,1.0000594926672686,120.577472378205
8.338461696,1.000054137634608,118.4831894906972
8.379487232,1.0000482867637603,116.39008536800574
8.420512768,1.000041863108137,114.29817224106306
8.461538304,1.0000351166270416,112.20745775102309
8.502564352,1.000027967488771,110.11792641807938
8.543589888,1.000020549417384,108.02962130906995
8.584615424,1.0000128298480049,105.94252317355405
8.625641472,1.0000050310968074,103.8566178515539
8.666667008,0.9999970146405673,101.77193747005434
8.707692544,0.999989122349243,99.68848290520017
8.74871808,0.999981250325072,97.60625720173222
8.789743616,0.9999734963461585,95.52522030449944
8.830769152,0.9999659947919565,93.44540338129427
8.871794688,0.9999587123618349,91.3668054190889
8.912820224,0.9999517937043636,89.2894004412695
8.95384576,0.9999454657742138,87.21321215708888
8.994871296,0.9999394524912494,85.13820772651236
9.035897856,0.999934117180163,83.06438414353217
9.076923392,0.9999293795980483,80.99174229647491
9.117948928,0.9999253564733414,78.92027565347185
9.158974464,0.9999219607657488,76.84997543798117
9.2,0.9999193932395859,74.78080935655778
9.241025536,0.9999175450503816,72.71278312255203
9.282051072,0.9999166393195678,70.64585856929403
9.323076608,0.9999165258705176,68.58007481061249
9.364102144,0.9999172276191626,66.51538412781521
9.405128704,0.9999187528754823,64.45176084951704
9.44615424,0.9999212003519593,62.38921486350675
9.487179776,0.9999245088021145,60.32772017649274
9.528205312,0.9999285072098316,58.26724269574372
9.569230848,0.9999333211759606,56.20781426677272
9.610256384,0.999938877080608,54.149374844522605
9.65128192,0.9999450784353296,52.09191657130019
9.692307456,0.999951956890849,50.03542747694628
9.733332992,0.9999593980255965,47.97990423850917
9.774358528,0.999967399809551,45.92530776080998
9.815385088,0.999975747091482,43.8716156187536
9.856410624,0.9999844981221622,41.81883651091103
9.89743616,0.9999935433567974,39.766939090715724
9.938461696,1.0000027210837545,37.715897605472236
9.979487232,1.0000120367267107,35.66570143538764
10.020512768,1.000021317610522,33.61634651672491
10.061538304,1.0000304645599964,31.567803184595473
10.10256384,1.000039580728426,29.520046166651884
10.143589376,1.0000483896006331,27.473078464734833
10.184614912,1.000056866417066,25.42686554924211
10.225641472,1.0000648075091274,23.381407000361783
10.266667008,1.000072331919129,21.336676247575873
10.307692544,1.000079194830095,19.292657099694765
10.34871808,1.0000853506806788,17.249348562905894
10.389743616,1.000090812342496,15.206698812986943
10.430769152,1.0000954541227798,13.164747289668648
10.471794688,1.0000992618618028,11.12340911497662
10.512820224,1.0001021279497841,9.082745199812365
10.55384576,1.0001040660910763,7.0426873959000735
10.594871296,1.0001050467896113,5.003224008244473
10.635897856,1.0001049477753934,2.9643416300129943
10.676923392,1.0001038650064245,0.9260556777700263
10.717948928,1.0001018112754894,-1.1116702857179024
10.758974464,1.0000987597934805,-3.1488608737875374
10.8,1.0000946535243855,-5.185517673696294
10.841025536,1.0000896100431622,-7.2216875700560195
10.882051072,1.0000836639263078,-9.257339626480723
10.923076608,1.0000768191685274,-11.292534576050928
10.964102144,1.0000692171877827,-13.327260000539578
11.005128704,1.0000607781211688,-15.36155400035764
11.04615424,1.0000517368554278,-17.395424604128447
11.087179776,1.0000421053935653,-19.428864579192172
11.128205312,1.0000319045768755,-21.461956268460153
11.169230848,1.0000212808039404,-23.49466704368164
11.210256384,1.0000103600254855,-25.527022063754337
11.25128192,0.9999992215264045,-27.559085584096568
11.292307456,0.9999879510722092,-29.590827069304705
11.333332992,0.9999767655712225,-31.6222947416348
11.374358528,0.9999655778502626,-33.6535090286013
11.415385088,0.9999546486363496,-35.684504306217185
11.456410624,0.9999441282600654,-37.71526883179582
11.49743616,0.9999339280308802,-39.745866982623305
11.538461696,0.9999242957235811,-41.77630616564671
11.579487232,0.9999152659819665,-43.80661772022088
11.620512768,0.9999070178649065,-45.836809778589384
11.661538304,0.9998996714445308,-47.86695775880707
11.70256384,0.9998931441850414,-49.897024022876266
11.743589376,0.9998876800601368,-51.92709278496819
11.784614912,0.9998831379714893,-53.957140280824035
11.825641472,0.9998798275020119,-55.98725515197514
11.866667008,0.999877665196885,-58.017422642500264
11.907692544,0.9998766298846794,-60.04768249060233
11.94871808,0.9998767853229276,-62.07807418024735
11.989743616,0.9998782301668083,-64.10861512119952
12.030769152,0.9998809962872317,-66.13934365467382
12.071794688,0.9998848660738016,-68.17026883498299
12.112820224,0.9998899536466683,-70.20144423153226
12.15384576,0.9998961767179881,-72.23288837594257
12.194871296,0.9999036306441257,-74.26463658750701
12.235897856,0.9999121080172586,-76.29670074971992
12.276923392,0.999921607475992,-78.32910980970537
12.317948928,0.9999319985057644,-80.36190961506499
12.358974464,0.9999431714791821,-82.39511651765979
12.4,0.9999551818796081,-84.42874692044778
12.441025536,0.9999677408145254,-86.46283310803864
12.482051072,0.999980864580962,-88.49740104511905
12.523076608,0.9999943685937409,-90.53248314005907
12.564102144,1.0000081320588157,-92.56805853908513
12.605128704,1.0000220182518378,-94.60420360282748
12.64615424,1.0000359176660747,-96.6409074122953
12.687179776,1.0000496483830597,-98.67818281497766
12.728205312,1.0000631212201414,-100.71605796396805
12.769230848,1.0000761975695158,-102.75457370462352
12.810256384,1.000088753605384,-104.79372192279365
12.85128192,1.0001006715811454,-106.83350750130481
12.892307456,1.0001117555400103,-108.87394708883718
12.933332992,1.0001218654052098,-110.91507343464977
12.974358528,1.000131036299526,-112.95688153242135
13.015385088,1.0001389865281374,-114.99938464810654
13.056410624,1.0001457356244805,-117.04259556281903
13.09743616,1.0001512377107686,-119.08653351030863
13.138461696,1.0001552873805817,-121.13118540868874
13.179487232,1.0001579129194127,-123.1765550014744
13.220512768,1.0001589932092134,-125.22267607341938
13.261538304,1.0001585928767274,-127.26952242056171
13.30256384,1.0001567026893181,-129.31712302438626
13.343589376,1.0001531896787446,-131.36548320220697
13.384614912,1.0001480955271562,-133.4145763513216
13.425641472,1.000141537811491,-135.46444040389835
13.466667008,1.0001334380809705,-137.51506556381045
13.507692544,1.0001239488617801,-139.5664490569963
13.54871808,1.0001130728474825,-141.61860643891356
13.589743616,1.0001009302246928,-143.67152379440745
13.630769152,1.0000876619252046,-145.72520745180407
13.671794688,1.0000732493753264,-147.77967576049113
13.712820224,1.000057927697255,-149.83489910351778
13.75384576,1.0000418570766165,-151.89092085038456
13.794871296,1.0000249095992604,-153.9477260567835
13.835897856,1.0000076824674111,-156.00529677956885
13.876923392,0.9999898979022511,-158.06367884457327
13.917948928,0.9999720284644239,-160.12285132470961
13.958974464,0.99995411725607,-162.1828080927865
14.0,0.9999363934932024,-164.2435677898843
