freq,mag,phase
6.0,0.9998210497948771,-16.535334858322322
6.007123968,0.9996089203866708,-16.78391461006428
6.014247424,0.9994192469635773,-17.0297867208615
6.021371392,0.9992621815194097,-17.273370313390615
6.028494848,0.9991465060028706,-17.515154128161715
6.035618816,0.9990785216590583,-17.755764038355846
6.042742784,0.9990620830785133,-17.99579739408133
6.04986624,0.9990982517717685,-18.236073284999474
6.056990208,0.9991851374201564,-18.477270826701236
6.064114176,0.9993179312110965,-18.72002114940514
6.071237632,0.9994889002078862,-18.964912443828595
6.0783616,0.9996888419636203,-19.21240274864018
6.085485056,0.9999065585871282,-19.46279553071969
6.092609024,1.0001298984807305,-19.71625635515167
6.099732992,1.0003462023923366,-19.97281333309462
6.106856448,1.0005436536235623,-20.23222137950509
6.113980416,1.0007111448566106,-20.49418264445614
6.121104384,1.0008394113847638,-20.758251348131616
6.12822784,1.000920951412953,-21.023800763134957
6.135351808,1.0009515186649829,-21.290167000983935
6.142475264,1.000929410345452,-21.556729677284643
6.149599232,1.0008555917260131,-21.82267584337111
6.1567232,1.0007341591921124,-22.087362638272353
6.163846656,1.000571914489057,-22.350189720887656
6.170970624,1.0003779062015616,-22.61071595197607
6.178094592,1.0001627121574717,-22.86845309733727
6.185218048,0.9999385532576129,-23.123315674908486
6.192342016,0.9997178397628321,-23.375207309133938
6.199465472,0.9995128714397502,-23.62428005532868
6.20658944,0.9993352074219718,-23.87073120062465
6.213713408,0.99919451573439,-24.115190269332324
6.220836864,0.9990991072708797,-24.358006655945378
6.227960832,0.9990540445646185,-24.599963589993664
6.2350848,0.9990620984421791,-24.841778701834144
6.242208256,0.9991226622775816,-25.084065249327477
6.249332224,0.9992326471768815,-25.327584852623076
6.25645568,0.9993856014337208,-25.572955821172158
6.263579648,0.9995732176945826,-25.820724162756765
6.270703616,0.9997852226853806,-26.071317077238906
6.277827072,1.000009382602112,-26.324935807176022
6.28495104,1.0002334968833002,-26.581697661302343
6.292075008,1.0004449890755513,-26.84145034303942
6.299198464,1.0006319471419336,-27.10403658859499
6.306322432,1.000784136047654,-27.368990596325208
6.313445888,1.00089287853707,-27.635772771835885
6.320569856,1.0009521627126754,-27.903759971655557
6.327693824,1.000958496706434,-28.17232429261224
6.33481728,1.0009118468373093,-28.44061377438489
6.341941248,1.000814475116272,-28.70805343707325
6.349065216,1.0006719435034364,-28.973919546394715
6.356188672,1.0004917739507815,-29.237692715254646
6.36331264,1.0002844149666983,-29.498859980309973
6.370436096,1.0000610328098867,-29.75719791732465
6.377560064,0.9998344421229137,-30.012565796940596
6.384684032,0.9996169283208224,-30.264930436687013
6.391807488,0.9994210234893481,-30.514552853883885
6.398931456,0.9992571892651578,-30.761781173354468
6.406055424,0.9991349909592968,-31.0071756998904
6.41317888,0.9990613900601896,-31.25119654128131
6.420302848,0.9990401570438223,-31.494731190012576
6.427426304,0.9990728279662907,-31.738366526411212
6.434550272,0.9991574587784716,-31.98288735516133
6.44167424,0.9992895040064111,-32.22892404295472
6.448797696,0.9994614279957483,-32.47714199659681
6.455921664,0.9996638644492984,-32.727955476466505
6.463045632,0.9998853335381865,-32.98172058307275
6.470169088,1.0001136892706155,-33.23864234678777
6.477293056,1.0003362297762162,-33.49871654485522
6.484416512,1.0005401751086207,-33.76173011946405
6.49154048,1.0007143835531445,-34.02743922201378
6.498664448,1.000849295363557,-34.29526732197584
6.505787904,1.0009369704437574,-34.56472722252628
6.512911872,1.0009730436586097,-34.8351050714456
6.52003584,1.0009550418935727,-35.105652500104874
6.527159296,1.0008839906094908,-35.37568494937272
6.534283264,1.0007635913500912,-35.644485271153215
6.54140672,1.0006010279180393,-35.91148064496439
6.548530688,1.0004049215512867,-36.17605526931019
6.555654656,1.0001862951598983,-36.43792289833608
6.562778112,0.9999571174145798,-36.69681296671211
6.56990208,0.9997305685739492,-36.952642438741016
6.577026048,0.9995188961978102,-37.20559001321445
6.584149504,0.9993341693045299,-37.45587130435513
6.591273472,0.999186507997214,-37.703987040663385
6.598396928,0.999084387623614,-37.95041797345803
6.605520896,0.9990335755611301,-38.19590944324564
6.612644864,0.9990369271825443,-38.44111743134749
6.61976832,0.9990941493575622,-38.68684896807066
6.626892288,0.9992022496525973,-38.9337399726764
6.634016256,0.9993552777907031,-39.18248807778245
6.641139712,0.9995445060154217,-39.43364095901126
6.64826368,0.9997595803785578,-39.68761371490833
6.655387136,0.999988547412411,-39.944669856443234
6.662511104,1.00021849252061,-40.20493935448456
6.669635072,1.0004366470061519,-40.468345850879146
6.676758528,1.000630801000058,-40.73461411255977
6.683882496,1.0007904736076816,-41.00338369392828
6.691006464,1.000906112444735,-41.27409521816025
6.69812992,1.0009716605656134,-41.54611439709717
6.705253888,1.0009834116105367,-41.8187380122277
6.712377344,1.000940581033052,-42.09122344178636
6.719501312,1.000845626272726,-42.36283574941417
6.72662528,1.0007036214704592,-42.632954757717535
6.733748736,1.0005223597450523,-42.900923916524796
6.740872704,1.0003121459574282,-43.16632373769817
6.747996672,1.0000845537030612,-43.42878288940608
6.755120128,0.9998520502414976,-43.688239507242976
6.762244096,0.9996279730242702,-43.94462154211608
6.769367552,0.999424587391943,-44.19820210181289
6.77649152,0.9992532784339047,-44.449263179554755
6.783615488,0.9991237330071052,-44.698321604143466
6.790738944,0.9990431449303177,-44.94601779443853
6.797862912,0.9990161737960266,-45.19308022072329
6.80498688,0.9990442861293772,-45.440202991078344
6.812110336,0.9991260138269413,-45.68813640241204
6.819234304,0.9992568621564024,-45.93758406145871
6.82635776,0.999429320138738,-46.18916055559691
6.833481728,0.9996341368539918,-46.443395809232804
6.840605696,0.9998598079691138,-46.70061751287979
6.847729152,1.0000935905027404,-46.961087704561365
6.85485312,1.0003226047881324,-47.22473903537123
6.861977088,1.000534012050531,-47.49147459908798
6.869100544,1.0007161957038089,-47.76098622007218
6.876224512,1.0008587762480698,-48.03277714756363
6.883347968,1.000953936797982,-48.30621876852224
6.890471936,1.0009961360698267,-48.58072668631009
6.897595904,1.000983324189984,-48.855486627960865
6.90471936,1.0009158000663143,-49.129794547520866
6.911843328,1.000797388166747,-49.40291958553692
6.918967296,1.0006347855464277,-49.67421069726341
6.926090752,1.0004367789008357,-49.943137653328094
6.93321472,1.000214383262077,-50.20923435242028
6.940338176,0.999979963397208,-50.47233623456716
6.947462144,0.9997468804903293,-50.73235358894921
6.954586112,0.9995278818916749,-50.989321880385745
6.961709568,0.9993349627877745,-51.24354767515257
6.968833536,0.9991793165428209,-51.495467683707496
6.975957504,0.9990694613594653,-51.74568505655516
6.98308096,0.9990117638057072,-51.9948113491969
6.990204928,0.9990092836512903,-52.24356042013758
6.997328384,0.9990624006906933,-52.492730844015796
7.004452352,0.999167946958086,-52.743062309694736
7.01157632,0.9993205337721682,-52.9952338833248
7.018699776,0.9995112056567164,-53.24979717479095
7.025823744,0.9997294154348285,-53.50723698078406
7.032947712,0.9999633779985152,-53.76782855954718
7.040071168,1.000199621701777,-54.03169209426166
7.047195136,1.000425143132362,-54.298794337141416
7.054318592,1.0006276158514305,-54.56883830832357
7.06144256,1.0007954286853078,-54.841552949752234
7.068566528,1.0009193175959585,-55.11626644441238
7.075689984,1.0009923634513513,-55.392411620141026
7.082813952,1.0010104791335606,-55.669254862167726
7.08993792,1.0009726178265184,-55.946026283309216
7.097061376,1.0008806533069312,-56.222034170214066
7.104185344,1.0007398347193794,-56.49651267886381
7.1113088,1.0005577872510092,-56.76888218162
7.118432768,1.0003448484505473,-57.03869829676537
7.125556736,1.0001125018295278,-57.30551537695725
7.132680192,0.9998740216674272,-57.56917137210042
7.13980416,0.9996424083131661,-57.82974765242073
7.146927616,0.9994307796025161,-58.08737511959528
7.154051584,0.9992508472917313,-58.34238466888305
7.161175552,0.9991128652540595,-58.59528889717668
7.168299008,0.9990242300221099,-58.846725336998944
7.175422976,0.9989903539089214,-59.097380908370724
7.182546944,0.9990128995619099,-59.348052869111186
7.1896704,0.9990907917016539,-59.59946392590547
7.196794368,0.9992197075615118,-59.852340286682406
7.203917824,0.9993924746899296,-60.10736941771477
7.211041792,0.9995995643241252,-60.365049116683444
7.21816576,0.9998292081810417,-60.625783156799244
7.225289216,1.0000691542758944,-60.889777571524306
7.232413184,1.0003055038838677,-61.15710519460421
7.239537152,1.0005251762681269,-61.42760053388835
7.246660608,1.0007161925140002,-61.70096236750401
7.253784576,1.0008676522885498,-61.976755784378895
7.260908032,1.0009711898152969,-62.2543409881081
7.268032,1.0010209678372934,-62.53303770431562
7.275155968,1.0010142819645393,-62.81211863643749
7.282279424,1.0009511722671605,-63.0908532898212
7.289403392,1.0008354627985425,-63.3683922389847
7.29652736,1.0006732046735678,-63.64414311493772
7.303650816,1.0004735771183297,-63.9175119192131
7.310774784,1.0002475383768807,-64.18809805760073
7.31789824,1.0000075662858399,-64.45556720348074
7.325022208,0.9997671791205338,-64.71983966075561
7.332146176,0.9995398925857728,-64.9809966154495
7.339269632,0.9993379547375494,-65.23930759976402
7.3463936,0.9991731450551927,-65.49517459991739
7.353517568,0.9990544226920341,-65.74920592190665
7.360641024,0.9989884553644222,-66.00201070398711
7.367764992,0.9989791014053272,-66.25434557900839
7.374888448,0.9990270000764079,-66.50707658698883
7.382012416,0.9991293716769584,-66.76087748177639
7.389136384,0.9992805791679188,-67.01647208396616
7.39625984,0.9994723096714165,-67.27446559239749
7.403383808,0.9996938733144642,-67.53535441121164
7.410507776,0.9999329121262748,-67.79946961367948
7.417631232,1.0001762231925302,-68.06692657297948
7.4247552,1.0004101393353406,-68.33771647204486
7.431878656,1.000621737090194,-68.61161673402346
7.439002624,1.0007989967324231,-68.88823832965343
7.446126592,1.0009322935920633,-69.16700978037203
7.453250048,1.001014031345077,-69.44736282028798
7.460374016,1.0010395124486444,-69.72856415800929
7.467497984,1.0010076570567068,-70.00974572080128
7.47462144,1.00091980855635,-70.29022180790395
7.481745408,1.0007807071679573,-70.56923723495085
7.488868864,1.0005984080585548,-70.84612714634248
7.495992832,1.000382736048474,-71.12041989687816
7.5031168,1.0001457468981645,-71.39170676795324
7.510240256,0.9999005858410644,-71.65978771367595
7.517364224,0.9996608384713599,-71.92462421285613
7.524488192,0.9994399375452127,-72.18642396157611
7.531611648,0.9992502447699513,-72.44546375367818
7.538735616,0.9991024010482658,-72.70228505143118
7.545859072,0.9990045889916199,-72.95751554465885
7.55298304,0.9989624799174034,-73.21185303185239
7.560107008,0.9989782716679206,-73.4660552358069
7.567230464,0.9990514844713981,-73.72091417567651
7.574354432,0.9991776486830499,-73.97727654381251
7.5814784,0.9993502581669016,-74.23569448102462
7.588601856,0.9995593247723715,-74.4968060888237
7.595725824,0.9997934584686913,-74.76101427516696
7.60284928,1.0000394948147133,-75.02853613526965
7.609973248,1.000283868162989,-75.29946657843008
7.617097216,1.0005129189409014,-75.57374075676125
7.624220672,1.000713888865197,-75.85096283818783
7.63134464,1.0008754379149989,-76.13077858617135
7.638468608,1.0009887431008477,-76.41252874702846
7.645592064,1.0010474341770932,-76.69550954020849
7.652716032,1.0010480642306643,-76.97898239118271
7.659839488,1.0009906356711034,-77.26213958862863
7.666963456,1.000878255796068,-77.54425903963823
7.674087424,1.0007171128691759,-77.82460254324582
7.68121088,1.0005159847822178,-78.10252717282592
7.688334848,1.0002862405706014,-78.37764647933258
7.695458816,1.0000403470030832,-78.64959183337153
7.702582272,0.9997922817563202,-78.91824970292393
7.70970624,0.9995557256982404,-79.18368011639087
7.716829696,0.9993437385539109,-79.44612820822987
7.723953664,0.9991682985235366,-79.70600354731005
7.731077632,0.9990393055544623,-79.96387294688644
7.738201088,0.9989639381053433,-80.22039571459389
7.745325056,0.9989464426384661,-80.47634904239447
7.752449024,0.9989879542587158,-80.73256191732322
7.75957248,0.9990861348900186,-80.98977342003616
7.766696448,0.9992356337617009,-81.24876754214273
7.773819904,0.9994279468711756,-81.51013794915846
7.780943872,0.999652636447283,-81.77444882121216
7.78806784,0.9998971917683926,-82.04199515905198
7.795191296,1.0001479719536166,-82.31299872584482
7.802315264,1.000390998687732,-82.58745965020256
7.809439232,1.0006127010052042,-82.86513104593436
7.816562688,1.0008008614664032,-83.14567423467918
7.823686656,1.0009448225645594,-83.42856184590391
7.830810112,1.001036603567171,-83.71310400876978
7.83793408,1.0010710153999471,-83.99860078069332
7.845058048,1.0010462485908558,-84.28426999232032
7.852181504,1.000963289260381,-84.56928171218786
7.859305472,1.0008270765236449,-84.85287957242434
7.86642944,1.0006446408492216,-85.13440260639642
7.873552896,1.0004266284971188,-85.41325107499445
7.880676864,1.000184650209761,-85.68910382251698
7.88780032,0.9999323318359882,-85.96165013899574
7.894924288,0.9996836500943782,-86.2308488758539
7.902048256,0.9994525805796989,-86.49686327763156
7.909171712,0.9992518243632865,-86.7599866435447
7.91629568,0.9990929025618543,-87.02073021982046
7.923419648,0.9989844663577566,-87.27973581439869
7.930543104,0.9989326490275564,-87.53769526483876
7.937667072,0.9989406174586689,-87.79542718159296
7.944790528,0.9990077443489611,-88.05375073908951
7.951914496,0.999130611687538,-88.31339695976594
7.959038464,0.9993021919352253,-88.5751755417524
7.96616192,0.9995130219134245,-88.83962505745836
7.973285888,0.9997516516545055,-89.10717115513744
7.980409856,1.0000044158347252,-89.37816365960143
7.987533312,1.0002573976050337,-89.65263155810423
7.99465728,1.000496645505376,-89.93055637355452
8.001780736,1.000708849875235,-90.21163080762659
8.008904704,1.0008818892091058,-90.49538735355857
8.016028672,1.0010064293330834,-90.78122388736642
8.023152128,1.0010752948717643,-91.06850316546532
8.030276096,1.001084574613658,-91.35639124665852
8.037400064,1.0010339948810436,-91.64406466027962
8.04452352,1.0009258755338228,-91.93075003154065
8.051647488,1.0007664374256378,-92.21567835056047
8.058770944,1.000564514705799,-92.4982606091182
8.065894912,1.0003309196410488,-92.77794001681771
8.07301888,1.0000789849199816,-93.0544286701138
8.080142336,0.9998225135394423,-93.32750753126497
8.087266304,0.9995757410400276,-93.59723252955945
8.094390272,0.9993525391684533,-93.86381860423376
8.101513728,0.9991653420519109,-94.12768451213478
8.108637696,0.9990245657501369,-94.38940695558746
8.115761152,0.9989382741229107,-94.64961301434052
8.12288512,0.9989111786658877,-94.90910190901837
8.130009088,0.9989449920216212,-95.16872711764991
8.137132544,0.9990379846592646,-95.42926384273518
8.144256512,0.9991846851245316,-95.69153328210987
8.15138048,0.9993773634708852,-95.95615673575486
8.158503936,0.9996051878879825,-96.2236915605725
8.165627904,0.9998554046792878,-96.49460664677322
8.17275136,1.0001141756287246,-96.76901049552609
8.179875328,1.0003671045883513,-97.04699505596213
8.186999296,1.0006001936479307,-97.32834433790094
8.194122752,1.0008003246477406,-97.61274776906195
8.20124672,1.0009564578005925,-97.89964308514803
8.208370688,1.0010597640527936,-98.18833697664876
8.215494144,1.0011045548085402,-98.47815235361062
8.222618112,1.0010882093858686,-98.76823933665393
8.229741568,1.0010115992680706,-99.05777289565124
8.236865536,1.000878826128246,-99.34595742895036
8.243989504,1.0006972415379094,-99.63210450756506
8.25111296,1.0004768550678496,-99.91561520934725
8.258236928,1.00022983458044,-100.19601476778341
8.265360896,0.999969997120539,-100.47301737093083
8.272484352,0.9997115955981332,-100.74658977601968
8.27960832,0.999469188938459,-101.01682705371002
8.286731776,0.9992561398048885,-101.28401158321886
8.293855744,0.9990846423008121,-101.54865249221776
8.300979712,0.9989639649245668,-101.81134830433624
8.308103168,0.9989011254841138,-102.07288097701094
8.315227136,0.9988996228298843,-102.33402735847069
8.322350592,0.9989597073669999,-102.59563360218957
8.32947456,0.9990779635107859,-102.85852235158033
8.336598528,0.9992480426897176,-103.12342334329247
8.343721984,0.999460318132306,-103.3910350270388
8.350845952,0.9997031482237305,-103.66177926472245
8.35796992,0.9999631272125926,-103.93604409318382
8.365093376,1.000225573418077,-104.2138826165347
8.372217344,1.0004760541415154,-104.49535780000573
8.3793408,1.0007004812969371,-104.7800815263317
8.386464768,1.0008865960427058,-105.0676785385225
8.393588736,1.001023804628845,-105.35756985298269
8.400712192,1.0011044368236537,-105.64900721946341
8.40783616,1.00112412998771,-105.94121178205134
8.414960128,1.0010815707069072,-106.23334603419569
8.422083584,1.0009789660938118,-106.52455712615678
8.429207552,1.0008221567920677,-106.81411153444125
8.436331008,1.0006195952967638,-107.1012814950715
8.443454976,1.0003825666248742,-107.38556241862008
8.450578944,1.00012400086079,-107.66654916217954
8.4577024,0.9998584411254201,-107.94404140114881
8.464826368,0.9996006947253313,-108.21804220696141
8.471950336,0.9993649330020458,-108.48875035610257
8.479073792,0.9991644602913777,-108.7565301126444
8.48619776,0.9990103924144902,-109.0219964667159
8.493321216,0.998911594086762,-109.28575366510485
8.500445184,0.9988733493899544,-109.54866462597614
8.507569152,0.998898128182405,-109.81152743696273
8.514692608,0.9989844540241388,-110.07522387876224
8.521816576,0.999127696395644,-110.34056598691859
8.528940544,0.9993200586697507,-110.60823402802032
8.536064,0.9995504971431649,-110.8788527744551
8.543187968,0.9998066338379005,-111.15285620531652
8.550311424,1.0000739390616726,-111.43048459190506
8.557435392,1.0003378196835389,-111.7118049504578
8.56455936,1.0005833067769445,-111.99664197718046
8.571682816,1.0007970963812405,-112.28467282946082
8.578806784,1.0009667904765216,-112.575419475879
8.585930752,1.0010834363986172,-112.86815492177874
8.59305472,1.0011400584223975,-113.16216866999464
8.600177664,1.0011337617443163,-113.45658655559943
8.607301632,1.0010646541002424,-113.7505812696799
8.6144256,1.0009364694484506,-114.04331068390377
8.621549568,1.000756266438112,-114.33401502403962
8.628673536,1.0005340748402214,-114.62209324286628
8.63579648,1.0002818859850364,-114.90700514129473
8.642920448,1.000014082923186,-115.18846928589144
8.650044416,0.9997451933833403,-115.46631853992317
8.657168384,0.9994902089485033,-115.74072072231027
8.664292352,0.999263660284724,-116.01187410600762
8.67141632,0.9990778213042771,-116.28028476402686
8.678539264,0.9989433693204666,-116.54654852331885
8.685663232,0.998867643128538,-116.81147758707137
8.6927872,0.9988551536283369,-117.07583713405648
8.699911168,0.998906606030847,-117.34052540947364
8.707035136,0.999019312164342,-117.60640369158115
8.71415808,0.9991869676731393,-117.87424113581314
8.721282048,0.9994002110693554,-118.14473231712567
8.728406016,0.9996473948183017,-118.41844951825158
8.735529984,0.99991472509183,-118.69570216621258
8.742653952,1.0001873154077754,-118.97672427759693
8.749776896,1.0004500792176456,-119.261422017392
8.756900864,1.0006884060894718,-119.54961713518477
8.764024832,1.0008889420408476,-119.84086842432225
8.7711488,1.0010406110663745,-120.13459023300322
8.778272768,1.0011348051506825,-120.43003447706498
8.785396736,1.0011663012841567,-120.72640958856135
8.79251968,1.0011333739543085,-121.02288810920366
8.799643648,1.001037543510571,-121.31853301688517
8.806767616,1.00088416793893,-121.61258604919291
8.813891584,1.000681684549444,-121.90430655703517
8.821015552,1.0004411437161684,-122.1930766600849
8.828138496,1.0001759419411862,-122.47848223670071
8.835262464,0.999900776207133,-122.7603154712989
8.842386432,0.9996308844519751,-123.03846693974327
8.8495104,0.999381388475503,-123.3131564762846
