freq,mag,phase
6.0,0.9999775916826622,-108.86795095103645
6.002285568,0.9997539622795809,-108.99919666526725
6.004571648,0.9995451909601198,-109.12727162522886
6.006857216,0.9993652198715052,-109.2525083763148
6.009142784,0.9992254905281369,-109.37544406523733
6.011428352,0.9991347653750093,-109.49668524560404
6.013714432,0.999099072489022,-109.61699067509493
6.016,0.9991204985274066,-109.73720733533182
6.018285568,0.999197708321853,-109.85813113715487
6.020571648,0.9993259261005777,-109.98058698379222
6.022857216,0.9994969820146106,-110.10522776199937
6.025142784,0.9996998724034334,-110.23257859468148
6.027428352,0.9999219708654715,-110.36303266705114
6.029714432,1.0001488643505219,-110.49676275790357
6.032,1.000366287814363,-110.6337041699958
6.034285568,1.0005603580075555,-110.7736751481178
6.036571648,1.0007187472238064,-110.91619377518705
6.038857216,1.000831538201292,-111.06070015571723
6.041142784,1.000891418105663,-111.20646393928439
6.043428352,1.000894699327985,-111.35266289848076
6.045714432,1.0008410492065283,-111.49853946974399
6.048,1.0007338653626165,-111.64324643203383
6.050285568,1.0005799579550874,-111.7860490367674
6.052571648,1.0003890693397828,-111.92633217873221
6.054857216,1.000173337278266,-112.06369990907207
6.057142784,0.9999463976634047,-112.19782292452045
6.059428352,0.9997226432599237,-112.32867370107851
6.061714432,0.9995164363232499,-112.45642674584441
6.064,0.9993407872765248,-112.58136957880717
6.066285568,0.9992067963758177,-112.70405499497649
6.068571648,0.9991231776970794,-112.82515202745279
6.070857216,0.9990952882285803,-112.94543613350803
6.073142784,0.9991246688349047,-113.06576173072072
6.075428352,0.9992098021585799,-113.18688592120452
6.077714432,0.9993450601046903,-113.30962579558381
6.08,0.999521960066059,-113.43466401098262
6.082285568,0.999729100114813,-113.56251062610964
6.084571648,0.999953568929433,-113.69344665834193
6.086857216,1.0001807745789741,-113.82771177414666
6.089142784,1.0003965378374544,-113.96519654104387
6.091428352,1.000587088658183,-114.10565248526494
6.093714432,1.00074033378496,-114.24860828366651
6.096,1.0008464197155476,-114.39344665797454
6.098285568,1.0008988063117636,-114.53941880957001
6.100571648,1.0008940048976347,-114.68578487005166
6.102857216,1.0008323698160575,-114.83162484119958
6.105142784,1.0007178158199461,-114.97622569623513
6.107428352,1.0005574665916335,-115.11880454331367
6.109714432,1.0003616523264682,-115.25881903818265
6.112,1.0001425776487896,-115.39582158449788
6.114285568,0.9999144796059981,-115.52958522463564
6.116571648,0.9996914838285235,-115.66003058990073
6.118857216,0.9994880571389205,-115.78736292394171
6.121142784,0.9993168545697939,-115.91198403280337
6.123428352,0.9991890572477238,-116.03443598374723
6.125714432,0.9991127174163456,-116.15539237082609
6.128,0.9990926359382319,-116.27562803221608
6.130285568,0.9991302329630157,-116.39600389416665
6.132571648,0.999223085313135,-116.51733710417493
6.134857216,0.9993652392092459,-116.64037848352443
6.137142784,0.9995477730045688,-116.76579598639348
6.139428352,0.9997589636743623,-116.89409090302937
6.141714432,0.9999854788193845,-117.0255566102766
6.144,1.000212811651468,-117.16031807715108
6.146285568,1.000426708754124,-117.29830932625862
6.148571648,1.000613399075559,-117.43918517021143
6.150857216,1.000761114237402,-117.5825687038514
6.153142784,1.0008604639054648,-117.72771082169646
6.155428352,1.0009051256601142,-117.87386462007741
6.157714432,1.0008923502758356,-118.0202576781533
6.16,1.0008226949918662,-118.1661046857323
6.162285568,1.0007007430784147,-118.31050860962752
6.164571648,1.000534178962697,-118.4528346648758
6.166857216,1.000333608090586,-118.59249002830892
6.169142784,1.0001116885479693,-118.72912082957767
6.171428352,0.99988241498699,-118.86242491697733
6.173714432,0.9996604990251341,-118.99246640509962
6.176,0.9994600290233703,-119.1194181131817
6.178285568,0.9992937104275698,-119.24368548068848
6.180571648,0.999172081549622,-119.36589341743073
6.182857216,0.9991031839138141,-119.48667004814696
6.185142784,0.9990911166157921,-119.60686223561747
6.187428352,0.9991367706779196,-119.72730427953553
6.189714432,0.9992372942263014,-119.8488211710675
6.192,0.999386279426917,-119.9721532733042
6.194285568,0.9995741827622865,-120.09792613639381
6.196571648,0.9997892408400674,-120.22661538933318
6.198857216,1.0000175469867325,-120.3585786920461
6.201142784,1.0002448483222162,-120.49382396168696
6.203428352,1.0004564012126285,-120.63228471992565
6.205714432,1.0006390720648994,-120.77361769810173
6.208,1.0007810386430822,-120.91728600732405
6.210285568,1.0008735553995962,-121.06265135411746
6.212571648,1.000910374992801,-121.20897892736681
6.214857216,1.0008893790519378,-121.35543347637856
6.217142784,1.0008118128595773,-121.50116985469836
6.219428352,1.0006826943781302,-121.64538770535361
6.221714432,1.0005100869995944,-121.78743488725961
6.224,1.0003048730073771,-121.92670996844069
6.226285568,1.0000801108731803,-122.06292165534883
6.228571648,0.9998502375049879,-122.19573971550939
6.230857216,0.9996295365834884,-122.32532688496543
6.233142784,0.9994323637405137,-122.45187372628894
6.235428352,0.9992710316522836,-122.57580240660567
6.237714432,0.9991559564757925,-122.69769554426637
6.24,0.9990944987304605,-122.81828038420971
6.242285568,0.9990905127743537,-122.93840742689252
6.244571648,0.999144168348652,-123.05888425835388
6.246857216,0.9992523936650565,-123.18055436424272
6.249142784,0.9994079763994861,-123.30414478666052
6.251428352,0.9996012965860532,-123.43028411604662
6.253714432,0.9998199029754078,-123.55940072867327
6.256,1.0000498334341386,-123.69179224901715
6.258285568,1.0002767267959884,-123.82749718765976
6.260571648,1.0004858613782144,-123.96639536321591
6.262857216,1.000664123000769,-124.1080981531893
6.265142784,1.0008002039298887,-124.25211532532145
6.267428352,1.0008855487917565,-124.39768763209335
6.269714432,1.0009144871556566,-124.54409600599013
6.272,1.0008854417213373,-124.69053673877671
6.274285568,1.0007999337712343,-124.83616930392641
6.276571648,1.0006636256062917,-124.98013399277662
6.278857216,1.0004850710991915,-125.12183246248564
6.281142784,1.0002754963277762,-125.26071959873933
6.283428352,1.000048326264321,-125.39640963368271
6.285714432,0.9998178089805918,-125.52877907804167
6.288,0.9995988539023286,-125.65787912907622
6.290285568,0.9994051557913128,-125.78394750164279
6.292571648,0.9992491083344843,-125.90749923888097
6.294857216,0.9991408063062452,-126.02908849846997
6.297142784,0.9990869293751502,-126.14947125452403
6.299428352,0.9990910996691508,-126.26953427691883
6.301714432,0.9991529212703564,-126.39008760520578
6.304,0.9992686919330656,-126.51188253314373
6.306285568,0.9994308375517197,-126.6357306984677
6.308571648,0.9996291658933664,-126.7621844875751
6.310857216,0.9998511085559396,-126.89171446986185
6.313142784,1.000082296150919,-127.02452332333917
6.315428352,1.0003084136075218,-127.16067486963789
6.317714432,1.000514914826936,-127.29995142675423
6.32,1.0006885980540436,-127.44201078046234
6.322285568,1.0008186033913298,-127.58628869695536
6.324571648,1.0008965616155063,-127.73204031442599
6.326857216,1.0009175900595575,-127.87854261971106
6.329142784,1.0008802648535366,-128.02490658915244
6.331428352,1.00078702226447,-128.17031044773398
6.333714432,1.0006436430857568,-128.3140073677532
6.336,1.0004593273405262,-128.4553376488227
6.338285568,1.0002456562313358,-128.59374849618894
6.340571648,1.0000161953354572,-128.72894774096224
6.342857216,0.9997855973664215,-128.86080241608198
6.345142784,0.9995684237475356,-128.98939934504068
6.347428352,0.9993785351989732,-129.11503233372176
6.349714432,0.9992279737868979,-129.2381382264894
6.352,0.9991264694666061,-129.35940231446781
6.354285568,0.9990804431576858,-129.47962298300888
6.356571648,0.9990928049731421,-129.59956420744524
6.358857216,0.9991627364379079,-129.72011394369397
6.361142784,0.9992859251678693,-129.8420710391118
6.363428352,0.9994544743629166,-129.96614178649494
6.365714432,0.9996576740068474,-130.09292647065772
6.368,0.999882643461692,-130.22281777858777
6.370285568,1.0001150619044927,-130.3560280514282
6.372571648,1.0003401558346152,-130.49258579511354
6.374857216,1.000543636670695,-130.63223929730674
6.377142784,1.0007125581602518,-130.77459641923042
6.379428352,1.000836146921109,-130.91910823496414
6.381714432,1.0009066796284558,-131.0650083723821
6.384,1.0009196169169892,-131.2115144922371
6.386285568,1.0008741103025602,-131.35778148685398
6.388571648,1.0007730046315688,-131.50296117432063
6.390857216,1.0006226266677678,-131.64632409020695
6.393142784,1.0004327305580694,-131.78725641268818
6.395428352,1.0002151643962627,-131.92518075825737
6.397714432,0.9999837083281934,-132.05984448933364
6.4,0.9997531600994175,-132.19113975094953
6.402285568,0.9995381208261391,-132.31918230508606
6.404571648,0.9993523844893102,-132.44428651004122
6.406857216,0.9992076422353718,-132.5669994437039
6.409142784,0.9991131230559847,-132.6879516649415
6.411428352,0.9990749517653499,-132.8079540398922
6.413714432,0.9990955492287353,-132.9277949223329
6.416,0.99917370610927,-133.04832194099097
6.418285568,0.9993042436963246,-133.17039231465944
6.420571648,0.9994790691242902,-133.29471956009095
6.422857216,0.9996869848950787,-133.4217855447545
6.425142784,0.9999147903715359,-133.5520255868211
6.427428352,1.0001479905317776,-133.6856257346517
6.429714432,1.0003717469898747,-133.8225593366343
6.432,1.000571927847056,-133.96259398075028
6.434285568,1.0007357688451368,-134.10517161700497
6.436571648,1.0008529062602467,-134.2499084190895
6.438857216,1.0009157961061874,-134.39587422686546
6.441142784,1.000920576644821,-134.54236298023346
6.443428352,1.0008667342555388,-134.68846478787955
6.445714432,1.0007578394156502,-134.8334370713604
6.448,1.0006007867326057,-134.97640914523248
6.450285568,1.0004054505727116,-135.11684286970257
6.452571648,1.000184148314663,-135.25423147602694
6.454857216,0.9999509627680844,-135.38832773093415
6.457142784,0.9997208169475285,-135.51905933060092
6.459428352,0.9995082460948738,-135.6465249986287
6.461714432,0.9993267081340107,-135.77114578968641
6.464,0.9991880263055258,-135.8934131738087
6.466285568,0.9991007434166246,-136.013988645945
6.468571648,0.9990705384126287,-136.13373189237893
6.470857216,0.9990995421639218,-136.25347831142028
6.473142784,0.99918564789914,-136.37401747856933
6.475428352,0.9993236089330179,-136.49620725280792
6.477714432,0.9995044706661224,-136.62073211703324
6.48,0.999716836658012,-136.74808145145394
6.482285568,0.9999472356977703,-136.87866177035224
6.484571648,1.0001810045301565,-137.01260822431672
6.486857216,1.000403237127461,-137.14989996353125
6.489142784,1.0005998569767194,-137.2901917989374
6.491428352,1.0007583529544386,-137.43310705281476
6.493714432,1.0008686682105836,-137.5779324936561
6.496,1.0009239028752408,-137.7239479375839
6.498285568,1.0009203144456384,-137.87038258839547
6.500571648,1.0008583627630714,-138.01627864239632
6.502857216,1.0007417472175326,-138.1608892943401
6.505142784,1.000577889183238,-138.30351984449646
6.507428352,1.000377262047177,-138.4434352352868
6.509714432,1.0001526080029373,-138.58026455287506
6.512,0.9999180343112283,-138.71376407087777
6.514285568,0.9996885107958114,-138.84386731565257
6.516571648,0.9994786594254007,-138.97073616030113
6.518857216,0.9993017719335145,-139.09481927686775
6.521142784,0.9991691750848049,-139.2166480503966
6.523428352,0.9990893367311806,-139.3368879744157
6.525714432,0.9990673639738851,-139.45635966259346
6.528,0.9991046240207195,-139.5759624215638
6.530285568,0.9991987931358068,-139.69649399033054
6.532571648,0.9993440134052365,-139.8187994546592
6.534857216,0.9995308652249686,-139.94349435340052
6.537142784,0.9997474286205452,-140.07113112724033
6.539428352,0.9999802289696302,-140.20200192974374
6.541714432,1.0002141116543624,-140.33630072125698
6.544,1.000434493113128,-140.4738870216283
6.546285568,1.0006272549984823,-140.61448786727928
6.548571648,1.000780161970474,-140.75755869322293
6.550857216,1.000883604535917,-140.90251776503
6.553142784,1.0009308925273352,-141.0485434587113
6.555428352,1.0009189950016977,-141.19485817121372
6.557714432,1.0008487525172465,-141.34054665456054
6.56,1.0007244395763903,-141.4848175526581
6.562285568,1.0005541159058056,-141.62694976051478
6.564571648,1.000348408964272,-141.76636838488832
6.566857216,1.000120492264718,-141.90257532550677
6.569142784,0.9998847139498763,-142.03542775779147
6.571428352,0.9996561155279088,-142.16488407440877
6.573714432,0.9994492481208659,-142.2911492919073
6.576,0.9992773003766698,-142.41468294559527
6.578285568,0.9991511420738811,-142.53600572597185
6.580571648,0.9990788673899013,-142.65586559604725
6.582857216,0.9990651552630995,-142.7751154359885
6.585142784,0.9991107719088003,-142.8945724271149
6.587428352,0.9992130259532127,-143.01510408885414
6.589714432,0.9993652545215282,-143.13745357179957
6.592,0.9995578450872082,-143.26235037778488
6.594285568,0.999778620669561,-143.39023053253752
6.596571648,1.000013391187959,-143.52140442568066
6.598857216,1.000247345441777,-143.65602921438668
6.601142784,1.0004655373752116,-143.79389040916212
6.603428352,1.0006542099394395,-143.93472736585247
6.605714432,1.0008013172835404,-144.07798118759908
6.608,1.0008975974183887,-144.22300083496987
6.610285568,1.0009367562090579,-144.368995081314
6.612571648,1.0009165015867223,-144.51516168597897
6.614857216,1.000837956509904,-144.66055994785677
6.617142784,1.0007060809753405,-144.80445578287836
6.619428352,1.0005293782674913,-144.94606720250746
6.621714432,1.0003188229626414,-145.0848935513091
6.624,1.0000879438054908,-145.2204611279679
6.626285568,0.9998512370586614,-145.35264040742896
6.628571648,0.9996238750013421,-145.48145352622976
6.630857216,0.9994203259100981,-145.60710195516717
6.633142784,0.999253389835358,-145.7300030320187
6.635428352,0.9991339464457526,-145.85085866246894
6.637714432,0.9990694486379861,-145.97034901208923
6.64,0.9990641681225586,-146.089308892556
6.642285568,0.999118199988275,-146.20862019189155
6.644571648,0.9992284626092509,-146.32912856262485
6.646857216,0.9993876801869203,-146.4515408048037
6.649142784,0.9995858937584766,-146.5765794129559
6.651428352,0.999810370976525,-146.70471893110468
6.653714432,1.0000469997508101,-146.83618078769436
6.656,1.0002805651311217,-146.97106914608943
6.658285568,1.0004963563272673,-147.10920908274295
6.660571648,1.000680654219217,-147.25026864785747
6.662857216,1.0008217139716002,-147.39364209616588
6.665142784,1.0009105287978086,-147.5387175540474
6.667428352,1.0009415771087036,-147.68465996910146
6.669714432,1.00091281745783,-147.83058332681244
6.672,1.000826028778105,-147.9756568116473
6.674285568,1.0006867358382912,-148.11912249721178
6.676571648,1.000503607462662,-148.26019401838383
6.678857216,1.0002884249413706,-148.3983696513331
6.681142784,1.0000548495271047,-148.53329684117523
6.683428352,0.9998175370207056,-148.66477921966808
6.685714432,0.9995917653246484,-148.79289423160756
6.688,0.9993916943199105,-148.91787963587504
6.690285568,0.999230232089332,-149.0401969490269
6.692571648,0.9991176740005878,-149.16054047637093
6.694857216,0.9990610802536415,-149.27960178907833
6.697142784,0.9990641634778883,-149.39829017661796
6.699428352,0.9991268232428795,-149.51743962339222
6.701714432,0.9992449238635034,-149.6378986826764
6.704,0.9994110581847789,-149.76040357901948
6.706285568,0.9996146440374256,-149.88562330241623
6.708571648,0.9998427238623048,-150.01393790884921
6.710857216,1.0000808370892886,-150.1456501359094
6.713142784,1.0003138713461515,-150.2808382384118
6.715428352,1.000526889832436,-150.41920698367397
6.717714432,1.0007065243410016,-150.56043189754763
6.72,1.0008412038337478,-150.70390403997425
6.722285568,1.000922565606611,-150.8489696007138
6.724571648,1.0009452620764854,-150.9947910865085
6.726857216,1.0009079435097175,-151.1404784631043
6.729142784,1.0008128564169925,-151.28519022501985
6.731428352,1.000666150967184,-151.42817055955734
6.733714432,1.0004770195599084,-151.56868192093742
6.736,1.0002573693947752,-151.70621137588887
6.738285568,1.0000212877651529,-151.8404161115181
6.740571648,0.9997836975585893,-151.9711769639531
6.742857216,0.9995597125389608,-152.09856403434495
6.745142784,0.9993635618269096,-152.2228558054548
6.747428352,0.9992077746422295,-152.3445822098887
6.749714432,0.9991023226123441,-152.46437387973697
6.752,0.9990537975329183,-152.58305630030975
6.754285568,0.9990654469756062,-152.70145747331338
6.756571648,0.9991365935598296,-152.82044429485038
6.758857216,0.9992625614601207,-152.94084336448685
6.761142784,0.999435501775092,-153.0634096964032
6.763428352,0.9996442670176103,-153.18878108755982
6.765714432,0.9998757326567326,-153.3173124319674
6.768,1.0001150666292997,-153.4492776118479
6.770285568,1.0003471050556376,-153.58464956918556
6.772571648,1.0005571691682378,-153.72323853319742
6.774857216,1.0007318045478975,-153.8646095879202
6.777142784,1.0008599125508908,-154.00816865025482
6.779428352,1.0009335265621586,-154.15317410562668
6.781714432,1.0009478675671295,-154.29883351146614
6.784,1.00090188488031,-154.44424231994614
6.786285568,1.000798609769398,-154.58854959100154
6.788571648,1.000644517099344,-154.73102558800568
6.790857216,1.0004494000009194,-154.87091721574194
6.793142784,1.0002255930875983,-155.00774303839785
6.795428352,0.9999873042488288,-155.1412197961348
6.797714432,0.9997497010617558,-155.2711931558418
6.8,0.9995278253848384,-155.3978264272696
6.802285568,0.9993358037471651,-155.52143658032435
6.804571648,0.999185973177157,-155.64254325910167
6.806857216,0.9990878070092913,-155.76181163410246
6.809142784,0.9990476236447627,-155.88004422760295
6.811428352,0.9990679188536995,-155.99815371882218
6.813714432,0.9991476095296705,-156.11696674358413
6.816,0.9992813650105093,-156.23731922762136
6.818285568,0.9994608765995736,-156.35993549429696
6.820571648,0.999674655907831,-156.48540300081407
6.822857216,0.9999092408768753,-156.6141323581509
6.825142784,1.000149498470772,-156.74633197621813
6.827428352,1.0003803647009142,-156.8819104422939
6.829714432,1.0005870159963,-157.02069062452145
6.832,1.0007564538076406,-157.16216549707218
6.834285568,1.0008778019022606,-157.3057559877738
6.836571648,1.0009434938078847,-157.45070525286977
6.838857216,1.0009492139690688,-157.59615880134072
6.841142784,1.0008945613063676,-157.74122758016682
6.843428352,1.0007831193661454,-157.88509135890732
6.845714432,1.0006218207707487,-158.02698764770307
6.848,1.0004209415641145,-158.16622134350374
6.850285568,1.0001931524782972,-158.30232947306254
6.852571648,0.9999529727814462,-158.43504613383786
6.854857216,0.9997155789906962,-158.56423917896274
6.857142784,0.9994961683428745,-158.69012110849576
6.859428352,0.9993086126701342,-158.81297663655923
6.861714432,0.9991650333884965,-158.93343820290823
6.864,0.9990743774689496,-159.05218401670908
6.866285568,0.9990425948790218,-159.17000036019172
6.868571648,0.9990716623445647,-159.28775973665674
6.870857216,0.9991597618244947,-159.40641716921994
6.873142784,0.9993013028042473,-159.5266983248758
6.875428352,0.9994872662901363,-159.64936663307947
6.877714432,0.9997059287547627,-159.7749562541267
6.88,0.9999432628761952,-159.90387422417444
6.882285568,1.000184209186763,-160.0362385775611
6.884571648,1.0004135126477611,-160.17201986163047
6.886857216,1.000616606829045,-160.3109664696654
6.889142784,1.0007804626743713,-160.4525416332203
6.891428352,1.0008948275580185,-160.59613182551251
6.893714432,1.0009522644091977,-160.7409520583302
6.896,1.0009493405105794,-160.88615291020764
6.898285568,1.0008861103427265,-161.03087946306294
6.900571648,1.0007664443319382,-161.1742656483532
6.902857216,1.000598057143589,-161.31555402432
6.905142784,1.00039152756213,-161.4540824079104
6.907428352,1.0001600427305783,-161.58941683879735
6.909714432,0.9999182244809216,-161.72132340722908
6.912,0.9996814318337425,-161.84968927231762
6.914285568,0.9994647823720489,-161.9747771802148
6.916571648,0.9992820732039354,-162.09693045735614
