freq,mag,phase
6.0,1.0000224715561152,-55.985651208195726
6.00926976,1.0000947159680904,-56.389967043698775
6.018540032,1.0001608809659657,-56.79536597330464
6.027809792,1.0002184379295669,-57.201746197459485
6.037080064,1.0002651734051404,-57.60893892392031
6.046349824,1.0002979966197079,-58.016819557300416
6.055620096,1.0003158541845425,-58.42522273959462
6.064889856,1.000317465462494,-58.83391249868472
6.074160128,1.000302357154718,-59.24267899476698
6.083429888,1.0002718308694334,-59.65134490886925
6.092699648,1.000226863105696,-60.05960308633081
6.10196992,1.0001699760660432,-60.4674571081905
6.11123968,1.000104169867661,-60.874646127449004
6.120509952,1.0000324315481939,-61.281083287930244
6.129779712,0.9999587735703489,-61.6867640763801
6.139049984,0.9998866444693068,-62.09160619133074
6.148319744,0.9998202566016426,-62.49572850707255
6.157590016,0.9997622230039983,-62.89918087495929
6.166859776,0.9997161749940849,-63.302138734099195
6.176129536,0.9996845569237888,-63.70468783091247
6.185399808,0.9996689197484683,-64.10715342531746
6.194669568,0.9996700397656153,-64.509605510597
6.20393984,0.9996877957073932,-64.91234800372317
6.2132096,0.9997218001915902,-65.31563070054966
6.222479872,0.9997699398961465,-65.7195736994858
6.231749632,0.9998300925573613,-66.1243604169294
6.241019904,0.9998991520446218,-66.53013982000019
6.250289664,0.9999733940508682,-66.93702871239208
6.259559424,1.0000492945494102,-67.34507767959929
6.268829696,1.0001226833003791,-67.75423906887133
6.278099456,1.0001900629419056,-68.16451050500197
6.287369728,1.0002476585609676,-68.57572084597156
6.296639488,1.000292860803072,-68.98776612712867
6.30590976,1.000322948510856,-69.40048753216497
6.31517952,1.0003364272162352,-69.81367507369112
6.324449792,1.0003327775246016,-70.22708951522874
6.333719552,1.0003116360091924,-70.64048754769938
6.342989824,1.00027456888135,-71.05365081745761
6.352259584,1.0002228888770075,-71.46646739409398
6.361529344,1.0001594884926162,-71.8786670641066
6.370799616,1.0000875256388932,-72.29015957206464
6.380069376,1.0000106063430174,-72.70084918967173
6.389339648,0.9999327312357763,-73.11064356762296
6.398609408,0.99985790311672,-73.51962605779975
6.40787968,0.9997898705057598,-73.92783281981062
6.41714944,0.9997322648589683,-74.33535893075687
6.426419712,0.999688108322126,-74.74236631136232
6.435689472,0.999659727005756,-75.1491130939491
6.444959232,0.999648275650114,-75.5557046481261
6.454229504,0.9996549524238384,-75.96237365208955
6.463499264,0.9996793510951104,-76.3694533677331
6.472769536,0.9997198403039186,-76.77709482796078
6.482039296,0.9997749658666938,-77.18550384505397
6.491309568,0.9998416652064244,-77.59487404335572
6.500579328,0.9999167211209663,-78.00529195354532
6.5098496,0.9999961537497469,-78.4169054672446
6.51911936,1.0000761188755065,-78.82969328286117
6.52838912,1.000152079402522,-79.24368204796549
6.537659392,1.0002206324903802,-79.658744488216
6.546929152,1.0002780088751075,-80.07481796980598
6.556199424,1.0003210012779702,-80.49170430836888
6.565469184,1.0003477303419648,-80.90923808895556
6.574739456,1.0003564883138043,-81.32713623706164
6.584009216,1.0003469102495994,-81.74521835641109
6.593279488,1.0003194932636117,-82.16317973203573
6.602549248,1.0002754043620625,-82.58087689393763
6.611819008,1.0002167749999644,-82.9980405653732
6.62108928,1.000146639572974,-83.41453272659855
6.63035904,1.0000685812757404,-83.8302594520487
6.639629312,0.999986621970092,-84.24504491120588
6.648899072,0.9999049204516118,-84.65893178218967
6.658169344,0.9998275327573966,-85.07195624922142
6.667439104,0.9997586545222452,-85.48418792414562
6.676709376,0.9997015850310487,-85.8957162693296
6.685979136,0.9996597399474053,-86.30677387316635
6.695248896,0.9996348010107473,-86.71752841732857
6.704519168,0.9996285265130324,-87.12822356582865
6.713788928,0.999641200483422,-87.5390836586195
6.7230592,0.9996721647875403,-87.95040233417593
6.73232896,0.9997198311155673,-88.3623695363277
6.741599232,0.9997821628646353,-88.77520622425476
6.750868992,0.9998555202829409,-89.18909209433436
6.760139264,0.9999365475448188,-89.60412008661939
6.769409024,1.0000210440461599,-90.02037183155255
6.778678784,1.000104666042411,-90.43788107964535
6.787949056,1.0001831855035355,-90.85660830495094
6.797218816,1.000252270226443,-91.27646143048361
6.806489088,1.000308711660038,-91.69731886915874
6.815758848,1.000349371075858,-92.11890700255792
6.82502912,1.000372089057719,-92.54110190172769
6.83429888,1.0003756610750976,-92.96366414038881
6.843569152,1.000360074475446,-93.38625070783014
6.852838912,1.0003256164611138,-93.8086796587459
6.862108672,1.0002742249122314,-94.2307380207616
6.871378944,1.0002084040259696,-94.65218655989064
6.880648704,1.000131546028691,-95.07286020684239
6.889918976,1.0000474547948344,-95.49263830179684
6.899188736,0.9999604301851599,-95.91147339090503
6.908459008,0.9998750903517413,-96.32927305673134
6.917728768,0.9997955105920572,-96.74619255470445
6.92699904,0.9997260490919798,-97.16228217903918
6.9362688,0.9996702393375179,-97.5777109711468
6.945539072,0.9996309439105951,-97.99262772717772
6.954808832,0.9996102921400097,-98.40732954165512
6.964078592,0.9996094652494617,-98.82199300131782
6.973348864,0.9996285514525671,-99.23692830711096
6.982618624,0.9996664979140528,-99.65239400055772
6.991888896,0.9997216328883356,-100.0686024982787
7.001158656,0.9997911643287948,-100.48576298864997
7.010428928,0.9998715212379513,-100.90402355763841
7.019698688,0.9999586182616853,-101.32356004382517
7.02896896,1.000048000686194,-101.74437774560468
7.03823872,1.0001351754848098,-102.16649473843987
7.04750848,1.0002156445888826,-102.58985507498633
7.056778752,1.0002851740931014,-103.0143474511747
7.066048512,1.0003402297017212,-103.43980083115692
7.075318784,1.0003778935139556,-103.86601605865594
7.084588544,1.0003962006702587,-104.29276188087647
7.093858816,1.0003941843132103,-104.71978764483639
7.103128576,1.0003717886211263,-105.14676642031145
7.112398848,1.0003300680780722,-105.57350948816935
7.121668608,1.0002711710230174,-105.99973195990263
7.130938368,1.0001979844753095,-106.42528306112968
7.14020864,1.0001142041477356,-106.8499288703581
7.1494784,1.0000241214326,-107.27361980179465
7.158748672,0.9999322419199969,-107.69625291629559
7.168018432,0.9998433307371732,-108.11784970958368
7.177288704,0.9997620588746863,-108.53847030208422
7.186558464,0.9996924234992091,-108.95824913173072
7.195828736,0.9996381425864663,-109.37734966110253
7.205098496,0.9996020628742829,-109.79598857749518
7.214368256,0.9995861925426647,-110.21446688602428
7.223638528,0.9995913295795156,-110.63297103427219
7.232908288,0.9996171299683854,-111.05178664288532
7.24217856,0.9996626645998098,-111.47124209000829
7.25144832,0.9997254454002675,-111.89151199682028
7.260718592,0.9998024687745074,-112.31284309794468
7.269988352,0.9998897717729571,-112.73539123330968
7.279258624,0.9999828502397164,-113.15922673817417
7.288528384,1.0000770750691221,-113.5844319984529
7.297798144,1.000167484504034,-114.0109988538631
7.307068416,1.0002496478321175,-114.43882227524966
7.316338176,1.0003191441632748,-114.86780548903529
7.325608448,1.000372346844873,-115.29769905910179
7.334878208,1.00040662472564,-115.72831626777403
7.34414848,1.0004199806132092,-116.15942224414447
7.35341824,1.0004117500342746,-116.59066375362335
7.362688512,1.0003822695633948,-117.02186091849121
7.371958272,1.0003329541551922,-117.45267500879137
7.381228032,1.000266216759739,-117.88286402291943
7.390498304,1.0001855165917797,-118.31224979174212
7.399768064,1.000094719840507,-118.7406513667475
7.409038336,0.9999986571343248,-119.16799726737153
7.418308096,0.999902012217576,-119.59421073282259
7.427578368,0.9998099271639558,-120.01929058481475
7.436848128,0.9997270862713385,-120.4434181711868
7.4461184,0.9996578148803904,-120.86665669712417
7.45538816,0.9996055617937613,-121.28921941515338
7.46465792,0.999573220610839,-121.71134919706275
7.473928192,0.9995624624747167,-122.13334053192065
7.483197952,0.9995738925106024,-122.55547693041217
7.492468224,0.999607184305673,-122.9779954732945
7.501737984,0.9996604121376476,-123.40120714855485
7.511008256,0.999731233961122,-123.82535802126748
7.520278016,0.9998159582165453,-124.250640261774
7.529548288,0.9999102962692927,-124.6772304065583
7.538818048,1.0000093824388574,-125.10521020201972
7.54808832,1.0001082162329116,-125.53461450007897
7.55735808,1.0002018448086893,-125.96538476684158
7.56662784,1.000285238481991,-126.39745650573086
7.575898112,1.0003542144390627,-126.83067687969229
7.585167872,1.0004051397571656,-127.26483033195764
7.594438144,1.0004354847342276,-127.69959792602077
7.603707904,1.0004434315791868,-128.1348078967833
7.612978176,1.0004285474621082,-128.57007564173858
7.622247936,1.0003915109696428,-129.00514928385746
7.631518208,1.000334133586607,-129.4397465128503
7.640787968,1.0002593115927323,-129.8736511493639
7.650057728,1.000170771186488,-130.3065953338777
7.659328,1.0000729153351495,-130.73844834405065
7.66859776,0.999970821769997,-131.16915174778407
7.677868032,0.9998697246972784,-131.59865552291407
7.687137792,0.999774643018108,-132.0269649888496
7.696408064,0.9996905823453144,-132.45425779636767
7.705677824,0.99962201315279,-132.88069414614904
7.714948096,0.9995722720454026,-133.30641704963773
7.724217856,0.999544055112969,-133.7317826289311
7.733487616,0.9995390053557898,-134.1570493701367
7.742757888,0.9995573832688207,-134.58249636591592
7.752027648,0.9995983763949201,-135.00843358151508
7.76129792,0.9996599063853984,-135.43518257337828
7.77056768,0.9997389825988479,-135.86295097139458
7.779837952,0.9998314971520762,-136.29193145081345
7.789107712,0.9999329726882573,-136.72230296212763
7.798377984,1.000037952116619,-137.1541532344169
7.807647744,1.0001413683592373,-137.58747741497305
7.816917504,1.0002377183277835,-138.02222082204372
7.826187776,1.000322189554046,-138.45826146518232
7.835457536,1.0003902761901136,-138.8954462126804
7.844727808,1.0004385130728455,-139.33349240678643
7.853997568,1.0004643475974129,-139.77216254250735
7.86326784,1.0004663266116391,-140.2111497292894
7.8725376,1.0004443529546858,-140.65012915150905
7.881807872,1.0003993050353797,-141.08880805610607
7.891077632,1.0003336048194909,-141.52687845788714
7.900347392,1.000250273974484,-141.9640930236338
7.909617664,1.0001537280935,-142.40031396230845
7.918887424,1.000048776096603,-142.83527460858858
7.928157696,0.9999407102435391,-143.26898213049495
7.937427456,0.9998350967786261,-143.70144139480905
7.946697728,0.9997373829231276,-144.13265073999776
7.955967488,0.9996525416536073,-144.56280169935573
7.96523776,0.999584982553353,-144.9920419333181
7.97450752,0.9995382453629521,-145.4206563808311
7.98377728,0.9995149009859663,-145.84889664813727
7.993047552,0.9995160179910783,-146.27708268911306
8.002317312,0.999541828836919,-146.70553951386466
8.011587584,0.99959099233722,-147.13460822361995
8.020857344,0.9996611663641299,-147.5645606486139
8.030127616,0.9997488236788019,-147.99562086818122
8.039397376,0.9998495175897528,-148.4280184941822
8.048667648,0.9999581248322564,-148.86189537464404
8.057937408,1.0000690614762757,-149.29730079280435
8.067207168,1.0001768453381308,-149.73425316560008
8.07647744,1.0002758158150855,-150.17264889466233
8.0857472,1.0003608566238718,-150.61234775514788
8.095017472,1.0004276334954867,-151.05317235816767
8.104287232,1.0004726627769929,-151.49483174171334
8.113557504,1.0004935051717025,-151.93702061591148
8.122827264,1.0004889909826737,-152.37946441656644
8.132097536,1.0004593854198065,-152.82177282635922
8.141367296,1.0004058973520276,-153.26367291201623
8.150637056,1.00033129234619,-153.70485238452923
8.159907328,1.0002393556654803,-154.14505555348265
8.169177088,1.0001345381481292,-154.5840966080979
8.17844736,1.0000223331555969,-155.02181779257444
8.18771712,0.9999083931842845,-155.4581760161326
8.196987392,0.9997984080710769,-155.89315128503432
8.206257152,0.9996983286261936,-156.32687305364087
8.215527424,0.9996129403121587,-156.75946875449574
8.224797184,0.9995469819328417,-157.19117861638782
8.234067456,0.9995037127170293,-157.62225189827683
8.243337216,0.9994855262624046,-158.05301944805805
8.252606976,0.9994934548357358,-158.4837987320822
8.261877248,0.9995271894757983,-158.91492129190834
8.271147008,0.9995851217640674,-159.34673093703216
8.28041728,0.9996643568460472,-159.77952668202263
8.28968704,0.9997608378247566,-160.2135815779574
8.298957312,0.9998698872320048,-160.6490335814798
8.308227072,0.9999857912303343,-161.08604687411895
8.317497344,1.0001026556351507,-161.52468093206
8.326767104,1.0002146798581384,-161.9648743136045
8.336036864,1.000315931569469,-162.40659433228402
8.345307136,1.000401303251136,-162.8496164404236
8.354576896,1.0004662181182018,-163.2936837443933
8.363847168,1.0005074217108247,-163.73860116092624
8.373116928,1.0005228198732088,-164.1839345901717
8.3823872,1.0005111735636834,-164.6294237160565
8.39165696,1.0004733700972819,-165.07471828517959
8.400927232,1.0004109142550306,-165.51943458136026
8.410196992,1.0003270268317959,-165.9632911897129
8.419466752,1.0002260073525673,-166.4060547155761
8.428737024,1.00011274637893,-166.84751532249462
8.438006784,0.9999931745398412,-167.28754688356273
8.447277056,0.9998732434625777,-167.7261156779171
8.456546816,0.9997591963049962,-168.16322439190154
8.465817088,0.999656690282213,-168.59899606935582
8.475086848,0.9995713360561744,-169.03364838590417
8.48435712,0.9995073441964746,-169.4673892822539
8.49362688,0.9994681755966861,-169.90052139356237
8.50289664,0.9994558033351895,-170.33338827572868
8.512166912,0.9994711742495089,-170.7663315687866
8.521436672,0.9995133561324708,-171.1997410810983
8.530706944,0.9995805268037933,-171.63392110669423
8.539976704,0.9996692764555318,-172.06918314076688
8.549246976,0.9997750363371873,-172.50579581378764
8.558516736,0.9998926290442838,-172.94394183832577
8.567787008,1.0000159617210163,-173.38372354552817
8.577056768,1.0001387988328663,-173.8252024863635
8.586326528,1.0002548612511435,-174.26829174586666
8.595596288,1.00035822256691,-174.7129282253942
8.60486656,1.0004434809541192,-175.1588422776731
8.614136832,1.0005061203929424,-175.60584775406727
8.623407104,1.0005430336820733,-176.05354831636834
8.632676352,1.0005522775298719,-176.5016493185835
8.641946624,1.0005330742378336,-176.9497679436047
8.651216896,1.0004862875383693,-177.39757971578985
8.660487168,1.0004144307539717,-177.84468012905006
8.669756416,1.0003208466423006,-178.29079291716806
8.679026688,1.0002102489287958,-178.73567800233053
8.68829696,1.0000883378938707,-179.17910643742346
8.697566208,0.9999612607930225,-179.62098381373139
8.70683648,0.9998353477349227,179.93872273516902
8.716106752,0.9997172847661224,179.49992911876873
8.725377024,0.9996130358336589,179.062530392417
8.734646272,0.9995278432939687,178.6262972971784
8.743916544,0.999466484948581,178.19099622077536
8.753186816,0.9994317614045726,177.75625243811243
8.762456064,0.9994259453676965,177.32171509352202
8.771726336,0.9994492697484536,176.88699831750324
8.780996608,0.9995007559352621,176.45176203587846
8.79026688,0.9995777388869558,176.01563313413797
8.799536128,0.9996764244280223,175.57829270297046
8.8088064,0.9997919677438311,175.13951698258674
8.818076672,0.9999183544754076,174.69909753863897
8.827346944,1.000049315463252,174.25692490423128
8.836616192,1.0001781379674168,173.8130191699624
8.845886464,1.0002981742247163,173.36741068913304
8.855156736,1.0004032112149877,172.92029675360655
8.864425984,1.0004878641213035,172.4718465517309
8.873696256,1.0005478915356647,172.02239982332372
8.882966528,1.0005798600569773,171.57227269426906
8.8922368,1.0005823018102642,171.1218486003296
8.901506048,1.000554708203433,170.67151648228676
8.91077632,1.0004985020791786,170.2216500429403
8.920046592,1.0004164449331194,169.77259234150102
8.92931584,1.0003125268171225,169.32469937357268
8.938586112,1.000192143076146,168.87821901225425
8.947856384,1.0000611353590463,168.4332778127001
8.957126656,0.9999264283219926,167.990029294628
8.966395904,0.9997945533457638,167.54846555790425
8.975666176,0.999672669654112,167.10847991356803
8.984936448,0.9995666787222346,166.6699855072798
8.99420672,0.9994824301365821,166.23265684083367
9.003475968,0.9994238844743805,165.79621508922014
9.01274624,0.9993945926311772,165.36032277232306
9.022016512,0.999395923968288,164.92458749895485
9.03128576,0.9994279509886339,164.48854841890034
9.040556032,0.9994892582840205,164.05190751168413
9.049826304,0.9995767583288818,163.61427463258738
9.059096576,0.9996860881536211,163.17528916503147
9.068365824,0.9998117633466933,162.734734567391
9.077636096,0.9999473385242774,162.29246678031362
9.086906368,1.00008605645553,161.84833334129917
9.09617664,1.0002207841181254,161.40237654950363
9.105445888,1.0003445788694436,160.9547052720219
9.11471616,1.0004510254725483,160.50546323859598
9.123986432,1.0005347275809944,160.05492813364947
9.13325568,1.000591421825914,159.60341275731295
9.142525952,1.0006177976899675,159.1513192431921
9.151796224,1.0006125974477837,158.6990172816116
9.161066496,1.0005759282921838,158.24693219152775
9.170335744,1.000509477468382,157.7954584639763
9.179606016,1.0004166117732518,157.34496188220007
9.188876288,1.0003018464413111,156.89575342829315
9.198145536,1.000170942662063,156.44811029001656
9.207415808,1.0000306210575993,156.0021848356542
9.21668608,0.9998880518585672,155.55804932778366
9.225956352,0.9997503010829144,155.115723869104
9.2352256,0.9996245681710547,154.6750642541063
9.244495872,0.9995174804869611,154.2358987406928
9.253766144,0.999434322095801,153.7979642414404
9.263036416,0.9993796177890892,153.36089714082425
9.272305664,0.9993562425981198,152.92431658928476
9.281575936,0.9993654606554917,152.48782537718958
9.290846208,0.9994070515042727,152.05095755169592
9.300115456,0.9994790087812941,151.6133701562795
9.309385728,0.9995777016889157,151.17462251620566
9.318656,0.9996983221895839,150.73440611713778
9.327926272,0.9998345298282946,150.29252707644892
9.33719552,0.9999796739483725,149.84878773695286
9.346465792,1.0001263755897571,149.4030866450359
9.355736064,1.0002669579948347,148.95550153028066
9.365005312,1.000394361327985,148.50613864856962
9.374275584,1.0005019170992602,148.05522343879497
9.383545856,1.0005842323579737,147.60300724758392
9.392816128,1.0006367375126386,147.14983976817766
9.402085376,1.0006568418751423,146.69621317024794
9.411355648,1.0006433079533177,146.24246772566514
9.42062592,1.000596624504452,145.78907000703066
9.429896192,1.0005191352784544,145.3364431613609
9.43916544,1.0004146309569557,144.88495385988728
9.448435712,1.0002882933237076,144.43494129965305
9.457705984,1.0001464545548266,143.98662518996247
9.466975232,0.9999963918694049,143.54015979011393
9.476245504,0.9998458285152559,143.09565512939258
9.485515776,0.9997020899393815,142.6530750238029
9.494786048,0.999572964874471,142.21221349146273
9.504055296,0.9994648230796476,141.7729184060074
9.513325568,0.9993835145468332,141.33482455457562
9.52259584,0.9993331114378139,140.897608424826
9.531865088,0.9993165571989712,140.46082994493906
9.54113536,0.9993346869681522,140.02403957437318
9.550405632,0.9993867918773499,139.58677829659854
9.559675904,0.9994701440384457,139.14862700946193
9.568945152,0.99958098570396,138.7092030029921
9.578215424,0.9997134493829024,138.2681996644
9.587485696,0.9998610136651327,137.82536760911103
9.596755968,1.0000160557568456,137.3805332393666
9.606025216,1.0001709005905877,136.93367837281158
9.615295488,1.0003173778962384,136.48485569075086
9.62456576,1.0004481128314289,136.0341715120392
9.633835008,1.0005564664194644,135.58192983892582
9.64310528,1.000636554126047,135.12843595182608
9.652375552,1.0006843271302766,134.6740758716082
9.661645824,1.0006971853092255,134.2192722177736
9.670915072,1.0006743584406403,133.76451732628107
9.680185344,1.0006167491189328,133.3102569367163
9.689455616,1.0005272389009332,132.85692645460517
9.698725888,1.000410189467863,132.404903796044
9.707995136,1.0002714898610363,131.9545082490858
