freq,mag,phase
6.0,1.0004577757702493,-131.61832760202194
6.00380928,1.0005224329384257,-131.84321295781334
6.007619072,1.0005550124238696,-132.06878683778845
6.011428352,1.0005537211247424,-132.29466315069425
6.015238144,1.0005186955625556,-132.52027178945877
6.019047424,1.0004518036068777,-132.74517476853822
6.022857216,1.0003572675768804,-132.96894929674139
6.026666496,1.0002407609750081,-133.19122923162513
6.030476288,1.0001092966114635,-133.41180463977224
6.034285568,0.9999708543539413,-133.63043140708388
6.03809536,0.9998337132263204,-133.84714594321855
6.04190464,0.9997062348740733,-134.06202569246284
6.045714432,0.9995962398487461,-134.27521534349458
6.049523712,0.9995101690020194,-134.48704311338307
6.053333504,0.9994534967493928,-134.6978388401436
6.057142784,0.9994295470540517,-134.90807989802843
6.060952576,0.9994397879506985,-135.11824359594155
6.064761856,0.9994836234613426,-135.32883569005503
6.068571648,0.9995583865630463,-135.5402909878354
6.072380928,0.9996596566516704,-135.7529849051825
6.07619072,0.9997812155953881,-135.96729093273925
6.08,0.9999157493188906,-136.18342235064037
6.08380928,1.000055091966163,-136.40153467975955
6.087619072,1.000190852682874,-136.62158326441482
6.091428352,1.0003148312416479,-136.84350893649153
6.095238144,1.0004194978545404,-137.0670727129437
6.099047424,1.0004983510146144,-137.29197506773076
6.102857216,1.0005470033339279,-137.5178157818267
6.106666496,1.0005621139581322,-137.74407017231647
6.110476288,1.0005429665747605,-137.9703415143557
6.114285568,1.000490711872611,-138.19614284271202
6.11809536,1.0004083185658612,-138.42099865865185
6.12190464,1.0003009005421037,-138.64450439781086
6.125714432,1.0001749309929087,-138.86638756298296
6.129523712,1.000037998124205,-139.08644207236767
6.133333504,0.9998983063983903,-139.30451484711244
6.137142784,0.9997643539685928,-139.52068613275716
6.140952576,0.9996444351139507,-139.73507586101775
6.144761856,0.9995455052094427,-139.94789582420034
6.148571648,0.9994738052165477,-140.15953309205628
6.152380928,0.9994335507249982,-140.37038836177928
6.15619072,0.9994272481975258,-140.5809370337265
6.16,0.9994553809315007,-140.79163576635634
6.16380928,0.9995160348041336,-141.00297775846258
6.167619072,0.9996058632697004,-141.21541633279438
6.171428352,0.9997191712611957,-141.42931635558583
6.175238144,0.9998492370722095,-141.64495267177193
6.179047424,0.9999882000020869,-141.8625119385224
6.182857216,1.0001275122056765,-142.0821198500741
6.186666496,1.0002589452416761,-142.30359848806876
6.190476288,1.000374403034842,-142.52685414010503
6.194285568,1.0004669328080953,-142.75161132541686
6.19809536,1.00053096634146,-142.97750183369823
6.20190464,1.0005626196483195,-143.2040774658472
6.205714432,1.0005599196063595,-143.43087414613905
6.209523712,1.000523004548954,-143.65743947901439
6.213333504,1.000454204584673,-143.8832488244931
6.217142784,1.000357533984335,-144.10788059820877
6.220952576,1.000238789111077,-144.3310503599725
6.224761856,1.0001053420839394,-144.55240559450604
6.228571648,0.9999650709083896,-144.77185775221926
6.232380928,0.9998265638169739,-144.9893404459031
6.23619072,0.9996981294509047,-145.20492713798845
6.24,0.9995875800773462,-145.41882955039713
6.24380928,0.9995015752382121,-145.63135433191124
6.247619072,0.9994454885145001,-145.84289390754046
6.251428352,0.9994225457311835,-146.05388121465216
6.255238144,0.9994343169624299,-146.264806170797
6.259047424,0.9994800205682001,-146.47614921436187
6.262857216,0.9995568323860512,-146.68836273051338
6.266666496,0.9996601901296562,-146.9018644463581
6.270476288,0.9997839127485207,-147.117027811186
6.274285568,0.999920428026661,-147.33405472110965
6.27809536,1.000061475855217,-147.55301707079585
6.28190464,1.000198578878364,-147.77400953411342
6.285714432,1.0003234094322528,-147.9968850699596
6.289523712,1.000428390721569,-148.22137977359182
6.293333504,1.0005072220008404,-148.44719623535624
6.297142784,1.0005550946447905,-148.67395419848413
6.300952576,1.0005690622630468,-148.901130917668
6.304761856,1.000548415535753,-149.12830411105188
6.308571648,1.0004941649376637,-149.35494798546557
6.312380928,1.000409781415471,-149.5806115261147
6.31619072,1.0003002022976384,-149.8049209990398
6.32,1.0001720593046692,-150.02757889171747
6.32380928,1.0000331522785073,-150.24835567192153
6.327619072,0.9998918653327514,-150.46715713432846
6.331428352,0.9997566972145918,-150.68397206904456
6.335238144,0.9996359001531995,-150.89903193576734
6.339047424,0.9995367196199995,-151.11250972527782
6.342857216,0.999465307823991,-151.32481305916943
6.346666496,0.999425826069305,-151.53630840366753
6.350476288,0.9994207969757241,-151.7474934828812
6.354285568,0.9994504969817211,-151.95890167404187
6.35809536,0.9995131792123496,-152.17097156707314
6.36190464,0.9996051199357905,-152.3841438826328
6.365714432,0.9997205986397584,-152.59879170168637
6.369523712,0.9998527298197796,-152.81522472371358
6.373333504,0.9999936001858821,-153.03360519364904
6.377142784,1.000134590592175,-153.25399822040262
6.380952576,1.0002671024127903,-153.47634682295455
6.384761856,1.0003832071309195,-153.700461304958
6.388571648,1.0004759840192194,-153.92609791266796
6.392380928,1.000539623675612,-154.15285693570613
6.39619072,1.000570350346805,-154.38029351148828
6.4,1.0005662607167543,-154.60792450352378
6.40380928,1.0005277031865074,-154.8352744695513
6.407619072,1.0004568968479084,-155.06187959570747
6.411428352,1.0003581020538583,-155.2872483895521
6.415238144,1.0002372269245252,-155.51111362067675
6.419047424,1.0001016279431267,-155.73316673478737
6.422857216,0.9999595309098168,-155.95323806817603
6.426666496,0.9998194285133208,-156.17134678227475
6.430476288,0.9996899973354352,-156.38756665043732
6.434285568,0.9995788820297374,-156.60206058135847
6.43809536,0.999492878001823,-156.81516558733026
6.44190464,0.9994372755745103,-157.02728003700457
6.445714432,0.999415292483307,-157.23886599289384
6.449523712,0.9994284890018938,-157.45037011454878
6.453333504,0.9994758583650543,-157.66234255028792
6.457142784,0.9995547911505778,-157.87520856342184
6.460952576,0.9996604009369787,-158.0893881474724
6.464761856,0.9997862860633238,-158.30525333206984
6.468571648,0.9999247870313089,-158.52296903956994
6.472380928,1.000067721970016,-158.74273432799262
6.47619072,1.0002062331956025,-158.96450328129944
6.48,1.0003320424689397,-159.18813032908093
6.48380928,1.0004375680779756,-159.41342415956663
6.487619072,1.00051634060802,-159.64005068930499
6.491428352,1.0005636162054417,-159.8675767420086
6.495238144,1.0005765247626157,-160.09553900591948
6.499047424,1.000554282110183,-160.32344631138508
6.502857216,1.000498149618583,-160.5508126150844
6.506666496,1.000411729465268,-160.77718921079796
6.510476288,1.0002999356527118,-161.0021990902881
6.514285568,1.0001696717891202,-161.22543625093755
6.51809536,1.0000287078244852,-161.44683638855852
6.52190464,0.9998856980084768,-161.66619395575177
6.525714432,0.9997491846744726,-161.8835585320683
6.529523712,0.9996274784657885,-162.09912732431178
6.533333504,0.99952795846239,-162.31314410423252
6.537142784,0.9994566541496517,-162.52593372664379
6.540952576,0.9994179227404687,-162.7379564789159
6.544761856,0.9994140872437915,-162.9496758464435
6.548571648,0.9994454272029861,-163.16159790566473
6.552380928,0.9995100547155151,-163.37422822717159
6.55619072,0.9996040923563831,-163.5879791338793
6.56,0.9997218026154782,-163.80323850082797
6.56380928,0.9998560891406979,-164.02033216338927
6.567619072,0.9999988617441821,-164.23937206176456
6.571428352,1.0001415068330168,-164.4604647507967
6.575238144,1.0002753069391765,-164.68352054905137
6.579047424,1.000392272922999,-164.90837749227555
6.582857216,1.0004851690035845,-165.1347096573614
6.586666496,1.000548613764489,-165.36220430657386
6.590476288,1.0005786220340884,-165.59034680414965
6.594285568,1.000573214230182,-165.8186963421151
6.59809536,1.0005329569377905,-166.04672194784126
6.60190464,1.0004601445277015,-166.27392624380684
6.605714432,1.000359161655783,-166.4999498751268
6.609523712,1.0002361316835928,-166.7243838339445
6.613333504,1.000098329978716,-166.94696924735683
6.617142784,0.9999543486492373,-167.1675836217918
6.620952576,0.9998127079768487,-167.38616952383651
6.624761856,0.9996820328061934,-167.60283821537655
6.628571648,0.9995701451318406,-167.81776961680623
6.632380928,0.9994840814774005,-168.03131370418404
6.63619072,0.9994287033650013,-168.24386955563205
6.64,0.9994077384104286,-168.45589011214898
6.64380928,0.9994223538722434,-168.66786152408613
6.647619072,0.999471520296166,-168.8802914646242
6.651428352,0.9995523969324472,-169.09367116455286
6.655238144,0.99966026352603,-169.30838619033176
6.659047424,0.9997883675744896,-169.52481190074587
6.662857216,0.9999289934913761,-169.74311075864395
6.666666496,1.0000737202255214,-169.96346068247595
6.670476288,1.0002138087178338,-170.1858492689606
6.674285568,1.0003407460674678,-170.41015482583848
6.67809536,1.0004468320853968,-170.63609691099904
6.68190464,1.0005256547002148,-170.86336841784495
6.685714432,1.0005723745867832,-171.0915478181813
6.689523712,1.0005843410173294,-171.3201444928757
6.693333504,1.000560534620893,-171.5486846937905
6.697142784,1.000502627821268,-171.77664919609097
6.700952576,1.0004139739172218,-172.0035567645947
6.704761856,1.0003000543664091,-172.22908343698853
6.708571648,1.000167478042303,-172.45284108489872
6.712380928,1.0000244983942348,-172.67467269719458
6.71619072,0.9998796365990109,-172.89446479855607
6.72,0.9997416611451188,-173.11222190210077
6.72380928,0.9996190067744076,-173.32819473787768
6.727619072,0.9995189345153788,-173.54255772058139
6.731428352,0.9994476489532234,-173.75571282785117
6.735238144,0.9994096282815457,-173.96810895103448
6.739047424,0.9994068866932637,-174.18019509724238
6.742857216,0.9994397967592843,-174.39250223967696
6.746666496,0.9995063682753754,-174.60555380118657
6.750476288,0.9996024958148846,-174.81974844347957
6.754285568,0.9997224796218562,-175.03546629781863
6.75809536,0.9998590515205421,-175.2530494429745
6.76190464,1.000003788205599,-175.47262623510593
6.765714432,1.00014823834263,-175.69424734331065
6.769523712,1.0002835299694022,-175.9178918067782
6.773333504,1.0004014138802928,-176.1433208982569
6.777142784,1.0004946537607986,-176.37024912989
6.780952576,1.0005578758657818,-176.59831171740117
6.784761856,1.0005869832940282,-176.82701965458494
6.788571648,1.0005804483079406,-177.05592995652972
6.792380928,1.0005385252174797,-177.2844577163977
6.79619072,1.0004637129681375,-177.512221012566
6.8,1.000360531386397,-177.73868730999163
6.80380928,1.0002351008296282,-177.96357524825996
6.807619072,1.000095273574129,-178.1865595649795
6.811428352,0.9999491840619689,-178.40752813370483
6.815238144,0.9998057851667519,-178.62647531736488
6.819047424,0.9996738941592622,-178.8434379017057
6.822857216,0.9995611969111168,-179.0586951406035
6.826666496,0.9994748550090894,-179.27254295099337
6.830476288,0.999419953714539,-179.4853414523286
6.834285568,0.9993996867192029,-179.6976761404392
6.83809536,0.9994156779598853,-179.90996311859206
6.84190464,0.9994666257284188,179.8772774317893
6.845714432,0.9995496941493223,179.66355328836696
6.849523712,0.9996596542906198,179.44849578091586
6.853333504,0.9997901361470736,179.23168892919676
6.857142784,0.9999329795102434,179.012900591715
6.860952576,1.0000796516988124,178.79211435327062
6.864761856,1.0002214311946958,178.56921389365212
6.868571648,1.0003495177625976,178.34442080807742
6.872380928,1.0004562461088482,178.11794919988785
6.87619072,1.0005352202096858,177.8901687730795
6.88,1.000581464829692,177.661481585287
6.88380928,1.0005924204707854,177.4324070771682
6.887619072,1.0005671775560092,177.2033831969296
6.891428352,1.0005074643230376,176.97495687112752
6.895238144,1.000416693989795,176.74762659618432
6.899047424,1.0003004707423195,176.52172270555394
6.902857216,1.0001655285206028,176.2976093254261
6.906666496,1.000020374445202,176.0754402954009
6.910476288,0.9998736476693217,175.8553828375715
6.914285568,0.9997341228123092,175.63734394498948
6.91809536,0.9996102896532104,175.42116280091156
6.92190464,0.9995096893690867,175.20658896070276
6.925714432,0.999438469152256,174.99320031911503
6.929523712,0.9994009233633895,174.78061157431674
6.933333504,0.9993992992016978,174.56829321914574
6.937142784,0.9994338576773097,174.35573478323275
6.940952576,0.9995022900517538,174.1424308436508
6.944761856,0.9996006444873066,173.92796004981585
6.948571648,0.9997229946940405,173.7118925107301
6.952380928,0.9998618476441002,173.49397678259987
6.95619072,1.0000088319977951,173.27403765591737
6.96,1.0001551002348124,173.05199987677315
6.96380928,1.0002917872561587,172.82793648563825
6.967619072,1.0004106105684478,172.60207248366544
6.971428352,1.0005043886599265,172.37469451685303
6.975238144,1.0005674495701748,172.146197247958
6.979047424,1.0005958902240037,171.91703711443998
6.982857216,1.0005881146634041,171.6877266977911
6.986666496,1.0005445628049703,171.458749158131
6.990476288,1.0004677174001313,171.23067390643482
6.994285568,1.0003623106077628,171.00383385464144
6.99809536,1.000234579602683,170.7786627846462
7.00190464,1.0000922941699804,170.5554060902438
7.005714432,0.9999441646527176,170.334201680995
7.009523712,0.9997990073395203,170.11508945590967
7.013333504,0.9996655448845734,169.89793072349914
7.017142784,0.9995520713998333,169.68253219007707
7.020952576,0.9994652752752622,169.46854655690868
7.024761856,0.9994107004832056,169.25558468770808
7.028571648,0.9993913005517745,169.0431250735673
7.032380928,0.9994084797996703,168.8306974640643
7.03619072,0.9994612382428698,168.6177391865534
7.04,0.9995463696280078,168.4038519267583
7.04380928,0.9996587706583846,168.1885166307707
7.047619072,0.9997915285513335,167.97143963173053
7.051428352,0.999936681543799,167.75239481830133
7.055238144,1.0000856210290021,167.53125476988237
7.059047424,1.0002289847554033,167.30803957284525
7.062857216,1.0003584471455784,167.08289869316408
7.066666496,1.000465903926667,166.85607531197803
7.070476288,1.0005449915911004,166.6278714549921
7.074285568,1.0005909499318708,166.39885115357845
7.07809536,1.0006009761746715,166.1693811566546
7.08190464,1.0005743472038084,165.9400001361139
7.085714432,1.0005127160838514,165.71128562512976
7.089523712,1.000419671970663,165.48363823968648
7.093333504,1.0003010381658,165.25750116596967
7.097142784,1.0001638786767442,165.03318964008517
7.100952576,1.000016373321887,164.81087636446745
7.104761856,0.9998674369000684,164.5906566269577
7.108571648,0.99972627523358,164.3724934587911
7.112380928,0.9996012846153002,164.15622390516103
7.11619072,0.9995001669719848,163.94158044236073
7.12,0.9994287507483276,163.72812348061433
7.12380928,0.9993918054548063,163.51545349092922
7.127619072,0.9993912753861123,163.30306916463977
7.131428352,0.999427262368006,163.09042033714903
7.135238144,0.9994978439568535,162.8770242217294
7.139047424,0.9995984351784437,162.6623932225621
7.142857216,0.9997230469288035,162.44614446494046
7.146666496,0.9998643227339622,162.2280640233465
7.150476288,1.0000135343033085,162.0078530006623
7.154285568,1.0001618938530081,161.78556888653324
7.15809536,1.0003002355384354,161.56123794655537
7.16190464,1.0004201021534629,161.33507726705884
7.165714432,1.0005144202365543,161.10737094977372
7.169523712,1.0005773974089998,160.8785676206431
7.173333504,1.0006052475990985,160.64910235226046
7.177142784,1.000596294278086,160.41951530355604
7.180952576,1.000550990098281,160.1902941220835
7.184761856,1.0004720153784414,159.96194372744338
7.188571648,1.0003643031572578,159.73493515022275
7.192380928,1.0002341229329217,159.50959722905728
7.19619072,1.0000894729906893,159.28621129962602
7.2,0.9999389747016701,159.06490431389807
7.20380928,0.9997918196898509,158.84572201723066
7.207619072,0.9996569903873108,158.62854151357044
7.211428352,0.999542491598729,158.41314389244533
7.215238144,0.9994553048164775,158.19916887202885
7.219047424,0.9994008301647386,157.98620829984503
7.222857216,0.9993822666344826,157.77374896435927
7.226666496,0.9994008411522931,157.5613043367639
7.230476288,0.9994553972021684,157.34834369664924
7.234285568,0.9995427704161168,157.13437259912783
7.23809536,0.999657441744267,156.91894114883152
7.24190464,0.9997928704262206,156.70177322554127
7.245714432,0.9999404024862875,156.4825847916378
7.249523712,1.0000913993022253,156.26127114226958
7.253333504,1.0002366506736307,156.03784833365802
7.257142784,1.0003674013169406,155.8124909609341
7.260952576,1.0004758680025543,155.5854104733773
7.264761856,1.0005551963478243,155.35699061823394
7.268571648,1.0006008711115277,155.1276714025346
7.272380928,1.0006099848355168,154.89800635765062
7.27619072,1.000581772331488,154.66845930089468
7.28,1.000518280631301,154.43953618600068
7.28380928,1.0004230222636006,154.21173464884723
7.287619072,1.0003018763453655,153.98548738153895
7.291428352,1.000162209399929,153.76105374102428
7.295238144,1.0000122110920362,153.53873522968567
7.299047424,0.9998612831299513,153.31848842812008
7.302857216,0.9997181928898782,153.10036681258762
7.306666496,0.9995919543226314,152.884170522375
7.310476288,0.9994899632219116,152.66957318903354
7.314285568,0.9994185028228351,152.4562167602773
7.31809536,0.9993819845744386,152.24362526210447
7.32190464,0.999382683519116,152.0312864729095
7.325714432,0.9994201916112727,151.81867330423862
7.329523712,0.9994927451066629,151.60530922881253
7.333333504,0.9995957723057488,151.39069670391757
7.337142784,0.9997229367719279,151.17441900273758
7.340952576,0.9998667524022692,150.95626212491769
7.344761856,1.0000184993233292,150.735991526771
7.348571648,1.0001688700709668,150.51357724008275
7.352380928,1.0003087857592192,150.28906259076126
7.35619072,1.0004298912577925,150.06274488350712
7.36,1.0005248598138274,149.8348653230464
7.36380928,1.0005878357171023,149.6058856498163
7.367619072,1.0006149338885268,149.37625956316253
7.371428352,1.0006048404050605,149.1464974387405
7.375238144,1.0005576367600415,148.9171535750897
7.379047424,1.0004766078167162,148.6886958253002
7.382857216,1.000366502679851,148.4616355167595
7.386666496,1.0002337105250487,148.23625891809016
7.390476288,1.0000864620505154,148.01289509060112
7.394285568,0.9999336474907896,147.79163351024513
7.39809536,0.9997845004912828,147.57253255176806
7.40190464,0.9996480112068923,147.3554516026998
7.405714432,0.9995325299017208,147.14017976628108
7.409523712,0.9994447820509978,146.92634840264614
7.413333504,0.9993905435569704,146.713530402858
7.417142784,0.9993727739211994,146.5012290900649
7.420952576,0.9993927294464248,146.2888923711483
7.424761856,0.9994491937781284,146.07605776289515
7.428571648,0.9995387723959495,145.86216424657258
7.432380928,0.9996560213086837,145.64681451088165
7.43619072,0.9997938881856063,145.42965938927756
7.44,0.9999440769317973,145.2104485315706
7.44380928,1.0000974009623775,144.98909847596605
7.447619072,1.000244729927598,144.7655981412253
7.451428352,1.0003769455092184,144.5401042619225
7.455238144,1.0004863791921277,144.31292703872882
7.459047424,1.0005661339301448,144.0844004331785
7.462857216,1.0006113968662862,143.8549933716137
7.466666496,1.0006193941880561,143.62518524250427
7.470476288,1.0005897492654157,143.39554344756186
7.474285568,1.0005242110414247,143.16657966762202
7.47809536,1.0004265895316968,142.9387702992382
7.48190464,1.0003029276406643,142.7125358586775
7.485714432,1.0001605586870153,142.4881753811253
7.489523712,1.000008043076564,142.26591485772983
7.493333504,0.9998548160812235,142.0458308530336
7.497142784,0.9997099479917911,141.8278625095324
7.500952576,0.9995821736369036,141.6118231434069
7.504761856,0.9994793859028627,141.39744448702015
7.508571648,0.9994078284577985,141.1842933012543
7.512380928,0.9993716925099098,140.97193746527114
7.51619072,0.9993734076660058,140.75982070525154
7.52,0.9994128356302683,140.5474112008284
7.52380928,0.9994874384313143,140.33420288872162
7.527619072,0.9995928436799107,140.11970035498632
7.531428352,0.9997227394817613,139.90354591489748
