freq,mag,phase
6.0,1.0012646396075655,36.999434450169
6.002287616,1.0012251479109766,36.80937639280284
6.004575232,1.0011088019870191,36.620424873532926
6.006862848,1.0009226116800023,36.43360439516336
6.009150464,1.0006784944704412,36.24985730941895
6.011438592,1.0003916792868761,36.069880114111065
6.013726208,1.0000801709539962,35.89422320923191
6.016013824,0.9997638160948132,35.723068139339375
6.01830144,0.9994624875095762,35.55634428783391
6.020589056,0.9991951330450044,35.39371041543945
6.022876672,0.9989787272637111,35.23453931137047
6.025164288,0.9988270548967354,35.078012997980125
6.027451904,0.9987496570165508,34.92311374107801
6.029740032,0.9987516035417668,34.768706659405844
6.032027648,0.9988326778288756,34.61366574463624
6.034315264,0.9989876672069583,34.45684662510798
6.03660288,0.9992070349324634,34.2972725919156
6.038890496,0.9994767813498627,34.134085988529755
6.041178112,0.9997799740586368,33.96670699371904
6.043465728,1.0000972777907775,33.79475832563571
6.045753344,1.000408804391618,33.618219418936725
6.04804096,1.0006949210827063,33.43729216480789
6.050329088,1.0009374639571071,33.25248661048453
6.052616704,1.00112129770646,33.064535275910266
6.05490432,1.0012347227897846,32.874394059763816
6.057191936,1.0012705962420776,32.683124774802025
6.059479552,1.0012268011523002,32.4918695395017
6.061767168,1.0011057100147787,32.3017337431106
6.064054784,1.0009152393718872,32.113790087363796
6.0663424,1.00066723092531,31.928986061372484
6.068630016,1.0003772480423552,31.748008156862817
6.070918144,1.0000635597395693,31.57137165180916
6.07320576,0.9997459969276382,31.399244143944614
6.075493376,0.9994444859072033,31.23156791699111
6.077780992,0.9991782577489448,31.067984447429122
6.080068608,0.9989640414389434,30.90782550929144
6.082356224,0.998815389309351,30.750259137253316
6.08464384,0.9987418334083127,30.594269006301648
6.086931456,0.9987480866660359,30.43871152530699
6.089219584,0.9988336679814876,30.28242918630537
6.0915072,0.998993095460206,30.12434774912103
6.093794816,0.9992165988892364,29.96341533441631
6.096082432,0.9994898514936574,29.79879924621253
6.098370048,0.9997956741484841,29.629940849409905
6.100657664,1.0001147174620888,29.456489010509245
6.10294528,1.00042684861325,29.278436888386928
6.105232896,1.0007124031828454,29.095977337710647
6.107520512,1.0009534285335449,28.90964417968071
6.10980864,1.0011346657916902,28.72019895987582
6.112096256,1.0012447362886725,28.528601614072244
6.114383872,1.0012765096554042,28.335931171720905
6.116671488,1.0012283326028826,28.143287808282384
6.118959104,1.0011028808068316,27.951879996264626
6.12124672,1.0009082143469794,27.762715549882145
6.123534336,1.0006563307500067,27.576721858217944
6.125821952,1.0003632661263882,27.39460172312423
6.128109568,1.0000473717078755,27.216853158054796
6.130397696,0.9997286562060136,27.043659498795037
6.132685312,0.999427156327128,26.874891642279625
6.134972928,0.9991619173509123,26.710201651147173
6.137260544,0.9989496876339089,26.54891840838121
6.13954816,0.998804039276002,26.390196165096942
6.141835776,0.9987340880034272,26.23298233618803
6.144123392,0.9987443970400495,26.076153383827922
6.146411008,0.9988343812348879,25.91856506386795
6.148699136,0.9989981965024504,25.75903533117548
6.150986752,0.9992256398634778,25.59663681335922
6.153274368,0.9995023678100456,25.430479752182556
6.155561984,0.9998106851318598,25.260036542882
6.1578496,1.000131421725538,25.084983444091282
6.160137216,1.000444211087882,24.905287301985588
6.162424832,1.000729381511649,24.721162420589273
6.164712448,1.0009687554783286,24.533212173324277
6.167000064,1.001147492304445,24.342172614452533
6.169288192,1.0012542389050747,24.149007459016907
6.171575808,1.0012823250470284,23.954806516885352
6.173863424,1.0012298445456165,23.76072256312421
6.17615104,1.0011000761898863,23.56787286864417
6.178438656,1.0009012654766603,23.37734903258238
6.180726272,1.0006458328886676,23.190045485583397
6.183013888,1.000349758072866,23.006676473804855
6.185301504,1.0000317705487047,22.82768700909946
6.18758912,0.9997118004362278,22.653278670688444
6.189877248,0.9994101739676005,22.48329712275807
6.192164864,0.9991459607642392,22.317383002315285
6.19445248,0.9989357282405461,22.15485981610581
6.196740096,0.9987929254838815,21.9948522031551
6.199027712,0.9987266199276871,21.836298546342388
6.201315328,0.9987409349252953,21.67807379461716
6.203602944,0.9988350735830125,21.518987846324794
6.20589056,0.9990030818375599,21.357942357095023
6.208178688,0.999234347620409,21.19394690352184
6.210466304,0.9995143324737215,21.026170284247005
6.21275392,0.9998253514402677,20.854039897866063
6.215041536,1.0001477200867366,20.677237630816034
6.217329152,1.0004610918784242,20.495765273052356
6.219616768,1.0007457781862623,20.309914432012047
6.221904384,1.0009837601653269,20.120219198663857
6.224192,1.0011602155544574,19.927439877505556
6.226479616,1.0012638844827633,19.732585612200367
6.228767744,1.00128821773621,19.536739236764063
6.23105536,1.0012316825002203,19.341045067743554
6.233342976,1.001097798209996,19.146672154103925
6.235630592,1.0008950204886575,18.954654652870833
6.237918208,1.0006359790859114,18.765920185029987
6.240205824,1.000337097476912,18.581158096085414
6.24249344,1.0000168425218912,18.40079982886839
6.244781056,0.9996958124854647,18.225043098984706
6.247068672,0.9993939623216374,18.05374938956702
6.2493568,0.9991306317147197,17.88647547046961
6.251644416,0.9989222310754143,17.72258192258287
6.253932032,0.9987821563496531,17.56114994043011
6.256219648,0.9987191047983403,17.40113910743274
6.258507264,0.9987372626187361,17.241402586009283
6.26079488,0.9988354386427393,17.08073926911629
6.263082496,0.9990074072158593,16.91805790380697
6.265370112,0.9992424711185632,16.75235459818433
6.26765824,0.9995256551703625,16.582809253490797
6.269945856,0.9998391064778055,16.408880213532502
6.272233472,1.0001630469576173,16.230244732317825
6.274521088,1.0004770896805357,16.04692088925851
6.276808704,1.0007614065628356,15.85920773190619
6.27909632,1.0009981701567878,15.66764228610714
6.281383936,1.0011723469414127,15.473039891822063
6.283671552,1.0012730630064333,15.27637474260884
6.285959168,1.0012939533339433,15.078765618072598
6.288247296,1.0012335858387487,14.88135741008143
6.290534912,1.0010957242917302,14.685319384457653
6.292822528,1.000889058265378,14.49171074948826
6.295110144,1.0006266791561527,14.301401023019869
6.29739776,1.0003248051441522,14.115119198143523
6.299685376,1.0000025703096709,13.933268333400049
6.301972992,0.9996803660372449,13.75603274997398
6.304260608,0.9993784422751026,13.583248839933068
6.306548224,0.99911578156438,13.414508053349762
6.308836352,0.9989090712297364,13.249128176188865
6.311123968,0.9987714330074728,13.086153586861638
6.313411584,0.9987115714921627,12.924551903103103
6.3156992,0.998733369080018,12.763182079199051
6.317986816,0.9988354105633181,12.600835318010816
6.320274432,0.999011226817148,12.436385455349422
6.322562048,0.999249871746246,12.268861138761798
6.324849664,0.9995360793178748,12.09746005327343
6.327137792,0.9998520648467095,11.921613459818579
6.329425408,1.000177630235793,11.74104397710978
6.331713024,1.0004922790355533,11.555745139474947
6.33400064,1.0007764184906012,11.366049389160949
6.336288256,1.001011966131281,11.172516085303336
6.338575872,1.0011841061528406,10.975970860225473
6.340863488,1.001282106307164,10.777397905875684
6.343151104,1.0012995476959607,10.577902221914782
6.34543872,1.001235610813967,10.37867561151398
6.347726848,1.0010939440362303,10.180844817518086
6.350014464,1.0008837665723658,9.98549376238448
6.35230208,1.0006179696257114,9.793494757500863
6.354589696,1.0003133325877722,9.605560968317894
6.356877312,0.9999892609996739,9.422086592532448
6.359164928,0.9996656884064729,9.243246594280077
6.361452544,0.9993635125641738,9.068890520608354
6.36374016,0.9991014997287055,8.898524691437883
6.366027776,0.9988963660071873,8.73150984732904
6.368315904,0.9987610177723024,8.56688156259114
6.37060352,0.9987042173682362,8.403585437869474
6.372891136,0.9987294277266294,8.24043896945663
6.375178752,0.9988350484033669,8.076284302781847
6.377466368,0.9990145514929497,7.909968254216933
6.379753984,0.9992565484164119,7.740542795086581
6.3820416,0.9995458687688894,7.567149097853512
6.384329216,0.9998640602665658,7.389294379044168
6.386617344,1.0001913405474865,7.206657537891109
6.38890496,1.0005068852351484,7.019296824499692
6.391192576,1.000790799558252,6.827550948731458
6.393480192,1.001025282812862,6.631945775601321
6.395767808,1.0011956108878728,6.433330843794276
6.398055424,1.0012910110181623,6.232705614292227
6.40034304,1.0013054355728181,6.031218321045996
6.402630656,1.0012379890659109,5.830037159672888
6.404918272,1.0010928417281402,5.63031112294122
6.4072064,1.0008791466290141,5.4330848958398565
6.409494016,1.0006101532475014,5.239287465595942
6.411781632,1.0003029099695704,5.049553414124727
6.414069248,0.9999766762293069,4.864340873146994
6.416356864,0.9996520400655208,4.6837760483179345
6.41864448,0.9993494231116655,4.5076688171664046
6.420932096,0.9990879989821497,4.33557711749611
6.423219712,0.9988842741122095,4.166813552481809
6.425507328,0.9987510138893333,4.000396022205993
6.427795456,0.9986968827656554,3.8352911610736165
6.430083072,0.998725240005346,3.6702886483172334
6.432370688,0.9988342772619002,3.504198316414752
6.434658304,0.9990172678544176,3.3359186331779327
6.43694592,0.9992624990152159,3.1644423263790507
6.439233536,0.9995546877142852,2.988982777272874
6.441521152,0.9998752109270129,2.8090186251327074
6.443808768,1.0002040250219126,2.624234580602534
6.446096896,1.0005204061289148,2.4347042149837503
6.448384512,1.0008043529595123,2.2407481151951236
6.450672128,1.0010379005409489,2.04296548541745
6.452959744,1.0012066031882538,1.842173277318714
6.45524736,1.0012997680408127,1.6394335626300311
6.457534976,1.0013113510793685,1.4358474850435585
6.459822592,1.001240663467737,1.2325862727980956
6.462110208,1.0010923288761508,1.0308374136454717
6.464397824,1.0008752842265856,0.8316390442834055
6.466685952,1.0006031912851836,0.6358900611517592
6.468973568,1.0002935181142651,0.4442319753226981
6.471261184,0.9999653093690924,0.2571658199573021
6.4735488,0.9996394667928173,0.07470722345440371
6.475836416,0.9993363750253427,-0.10324513601584957
6.478124032,0.9990752421242527,-0.2771782714380879
6.480411648,0.9988726314217724,-0.44783051962466336
6.482699264,0.9987413200275531,-0.6161443710474922
6.48498688,0.9986896098811627,-0.7831858966042583
6.487275008,0.9987208269670265,-0.950178935780805
6.489562624,0.9988331654220525,-1.1182875800097125
6.49185024,0.9990193342093113,-1.2886640169257755
6.494137856,0.9992676706998505,-1.462268415175768
6.496425472,0.9995625899744309,-1.6399014507206722
6.498713088,0.9998855550221812,-1.8220832933942863
6.501000704,1.000215937202004,-2.0091160937242476
6.50328832,1.000533219408879,-2.2009007711449193
6.505576448,1.0008172152455204,-2.3971545341745566
6.507864064,1.0010501279297628,-2.5972244718331376
6.51015168,1.0012174725963616,-2.800259976627284
6.512439296,1.0013084232890133,-3.0052755840479364
6.514726912,1.001317489000202,-3.2110821774441987
6.517014528,1.0012440266056386,-3.4165108090481744
6.519302144,1.0010923163581151,-3.6204168424477343
6.52158976,1.0008722309182458,-3.8217261031312204
6.523877376,1.0005974325639773,-4.019542393366109
6.526165504,1.0002851610841033,-4.213207465932303
6.52845312,0.999955017369534,-4.402311056764647
6.530740736,0.9996278080870727,-4.586746303084469
6.533028352,0.9993240999539656,-4.76668133050961
6.535315968,0.9990631515900686,-4.942594804763713
6.537603584,0.9988614905766715,-5.1152349058935
6.5398912,0.9987318174322778,-5.285570135471286
6.542178816,0.9986823660297263,-5.454665462078199
6.544466432,0.9987162490817616,-5.623746143455892
6.54675456,0.9988313718382787,-5.79399448514415
6.549042176,0.9990206024663942,-5.966520136618041
6.551329792,0.9992718871932315,-6.142368183352565
6.553617408,0.9995694315507895,-6.322269876106688
6.555905024,0.9998945436965002,-6.506777237585523
6.55819264,1.0002265949060087,-6.696141270436916
6.560480256,1.0005447991545158,-6.890315656387038
6.562767872,1.0008291148331832,-7.088916562028994
6.565056,1.0010616505657655,-7.291362666927672
6.567343616,1.0012278095572864,-7.496774318643131
6.569631232,1.0013169908854704,-7.704132881949696
6.571918848,1.0013237433652147,-7.912277789619142
6.574206464,1.0012474060987522,-8.119994141728812
6.57649408,1.001093051926376,-8.326170926232333
6.578781696,1.0008700467719192,-8.5297136484423
6.581069312,1.0005925127319322,-8.729707024631736
6.583356928,1.0002778850444165,-8.925542023361322
6.585645056,0.9999456902555192,-9.116763711280498
6.587932672,0.9996172091519059,-9.303313521763716
6.590220288,0.9993127425975976,-9.485338180109732
6.592507904,0.9990519103457289,-9.663354219138705
6.59479552,0.9988509235213341,-9.838135649527821
6.597083136,0.9987225958098506,-10.010582676708989
6.599370752,0.9986749775661756,-10.181840627087167
6.601658368,0.9987111484756325,-10.353105632351912
6.603945984,0.9988289896360464,-10.52559150111233
6.606234112,0.9990209206548532,-10.700414484947572
6.608521728,0.9992749940251678,-10.878549510161257
6.610809344,0.9995750709726454,-11.060822926046146
6.61309696,0.9999023541691411,-11.247719528523598
6.615384576,1.000236042468483,-11.439510838653085
6.617672192,1.0005553655494872,-11.636146521574984
6.619959808,1.000840055626243,-11.837211629789973
6.622247424,1.0010724155423896,-12.04212146464192
6.624535552,1.0012375806028697,-12.249996110065963
6.626823168,1.001325315264241,-12.45981801638895
6.629110784,1.0013301677594264,-12.670386480882096
6.6313984,1.0012516028134482,-12.880529563632948
6.633686016,1.001094515464346,-13.08907180838858
6.635973632,1.0008689042536654,-13.294940653101586
6.638261248,1.0005887432585383,-13.497276574893377
6.640548864,1.0002717395800265,-13.695368446242192
6.64283648,0.9999376354510465,-13.888841313022413
6.645124608,0.9996077384817578,-14.077621625795254
6.647412224,0.999302505818737,-14.261884670210401
6.64969984,0.9990412651203603,-14.442115686932064
6.651987456,0.9988407489077245,-14.61908309804522
6.654275072,0.9987134292096033,-14.793772286563978
6.656562688,0.9986674684329312,-14.967301528543807
6.658850304,0.9987056888914119,-15.140844288250678
6.66113792,0.998825868741212,-15.315653422917714
6.663426048,0.9990203708064275,-15.492842138845074
6.665713664,0.9992767981796024,-15.673402028672191
6.66800128,0.9995793970425757,-15.858107618487567
6.670288896,0.9999086849428098,-16.047493251633515
6.672576512,1.0002442327933478,-16.24179419482115
6.674864128,1.0005646777524,-16.440943818474743
6.677151744,1.0008500713560706,-16.644578822529503
6.67943936,1.0010823556123654,-16.852041667354076
6.681726976,1.0012469991127058,-17.062482757045967
6.684015104,1.0013336126635513,-17.274857185526862
6.68630272,1.0013367345798976,-17.487950966617685
6.688590336,1.0012560773322092,-17.700598379011495
6.690877952,1.0010966801691936,-17.91163334414962
6.693165568,1.0008687363982522,-18.11995066393093
6.695453184,1.000586172630047,-18.324694562214994
6.6977408,1.000266830021167,-18.525184654096943
6.700028416,0.9999309379448145,-18.721037124028772
6.702316032,0.9995993791383684,-18.912130880451965
6.70460416,0.9992931551767105,-19.09872540455802
6.706891776,0.9990315935683591,-19.281284846570134
6.709179392,0.9988311662115178,-19.460598108824303
6.711467008,0.9987045652498499,-19.637630271958166
6.713754624,0.9986597169938172,-19.813503576494018
6.71604224,0.9986998194423187,-19.98944108749237
6.718329856,0.9988220025479256,-20.166665830157857
6.720617472,0.9990187960994412,-20.34629756405518
6.7229056,0.9992776513530838,-20.529335117489484
6.725193216,0.9995824461021027,-20.716554675217672
6.727480832,0.9999138574569876,-20.908491506940102
6.729768448,1.0002511039715571,-21.105389544325128
6.732056064,1.0005728782132235,-21.307146794905897
6.73434368,1.0008591461364256,-21.513408349847943
6.736631296,1.0010917050559949,-21.72350210218209
6.738918912,1.0012560494710518,-21.936599929173475
6.741206528,1.0013418497519049,-22.15159086621565
6.743494656,1.0013436234979944,-22.367327249612586
6.745782272,1.001261269874089,-22.582570289042607
6.748069888,1.0010999230507684,-22.796187541884965
6.750357504,1.0008696741611682,-23.007068734672657
6.75264512,1.0005848795396481,-23.214328386543535
6.754932736,1.0002634644860513,-23.41736157368894
6.757220352,0.9999256158061371,-23.615682307526953
6.759507968,0.9995924335400923,-23.809231865112356
6.761795584,0.999285069822532,-23.998268328789095
6.764083712,0.9990227968623401,-24.183234622152725
6.766371328,0.9988222371549667,-24.36498899745278
6.768658944,0.9986960041901635,-24.544442574969786
6.77094656,0.998652141308916,-24.722769929648177
6.773234176,0.9986934931071212,-24.901180508930423
6.775521792,0.998817359987519,-25.08087907431796
6.777809408,0.9990161272982162,-25.263033930183127
6.780097024,0.9992771987882245,-25.448614041306076
6.782385152,0.9995840694166961,-25.63844049759663
6.784672768,0.9999175897475145,-25.83299148691982
6.786960384,1.0002566126058983,-26.0325240749282
6.789248,1.0005798851994356,-26.23698051217495
6.791535616,1.000867112125916,-26.445924475032303
6.793823232,1.0011002336304964,-26.658739730740688
6.796110848,1.0012646695040734,-26.87455030004277
6.798398464,1.0013499100540528,-27.092263883792096
6.80068608,1.0013507862216504,-27.310709385093002
6.802974208,1.0012671906217046,-27.528654771965957
6.805261824,1.0011040219306824,-27.744928595566684
6.80754944,1.0008718267544143,-27.958487436080073
6.809837056,1.0005848887773492,-28.16838028627958
6.812124672,1.0002614853329883,-28.373989963025
6.814412288,0.9999216410662072,-28.57489536507895
6.816699904,0.9995867912779117,-28.7710199094931
6.81898752,0.99927807770626,-28.962577856898672
6.821275136,0.9990148092135686,-29.150112362228032
6.823563264,0.9988137276731565,-29.334358302451705
6.82585088,0.9986875483801692,-29.51634921467755
6.828138496,0.9986443157882824,-29.69718283350254
6.830426112,0.9986865930977878,-29.878134754346117
6.832713728,0.998811846178479,-30.06038864923555
6.835001344,0.9990122856447214,-30.245121775629137
6.83728896,0.9992752787026472,-30.433332931161374
6.839576576,0.9995841303270218,-30.625799173429524
6.841864704,0.9999195788743361,-30.823029247547275
6.84415232,1.0002604388936809,-31.025282426217565
6.846439936,1.0005853889979628,-31.232451387760918
6.848727552,1.0008738696560178,-31.444152522951516
6.851015168,1.0011078115042056,-31.65974625318136
6.853302784,1.0012726660503442,-31.8783353426213
6.8555904,1.0013579360737392,-32.098831362523676
6.857878016,1.001358198003466,-32.32005535349309
6.860165632,1.0012734268900085,-32.540782761949984
6.86245376,1.0011090661715198,-32.75983856927621
6.864741376,1.0008751453608848,-32.97613595097438
6.867028992,1.0005863199930491,-33.18876430584471
6.869316608,1.000260941790607,-33.39705873104381
6.871604224,0.9999190812896482,-33.60063444791923
6.87389184,0.9995825097928356,-33.79940702636413
6.876179456,0.9992721187920178,-33.99359673296015
6.878467072,0.9990077810805524,-34.183735691929996
6.880754688,0.9988058443319547,-34.37059782899845
6.883042816,0.9986792186186726,-34.5551686208958
6.885330432,0.9986361477631497,-34.73862023667512
6.887618048,0.9986790737949742,-34.92215833662065
6.889905664,0.9988053925844341,-35.107034031227236
6.89219328,0.9990072636239489,-35.29443033961681
6.894480896,0.999271926498655,-35.48528093456761
6.896768512,0.9995826982060603,-35.680441545378265
6.899056128,0.9999201694101736,-35.88039949474772
6.901344256,1.0002629656947823,-36.08539792230217
6.903631872,1.0005896152526186,-36.29531952197374
6.905919488,1.0008796676165257,-36.5098355187805
6.908207104,1.0011148162468197,-36.72826954284123
6.91049472,1.0012803845376332,-36.949684821025805
6.912782336,1.0013659428401414,-37.17302476143862
6.915069952,1.0013659507284256,-37.39712030979487
6.917357568,1.0012806461124724,-37.62070260861965
6.919645184,1.0011151607678999,-37.84258855679367
