freq,mag,phase
6.0,0.9997694426942573,35.421942376824724
6.007060992,0.9998149826674498,35.25294039741997
6.014121984,0.9998713149884957,35.083240730791886
6.021182464,0.9999347869022636,34.91273559327097
6.028243456,1.0000018639473451,34.74135253412713
6.035304448,1.0000687420415486,34.56899893562001
6.04236544,1.0001318017517378,34.39580484196033
6.049426432,1.0001873512544457,34.221717775495584
6.056487424,1.0002323231362498,34.046996798512254
6.063547904,1.0002642639754256,33.87174137626701
6.070608896,1.0002811618104601,33.69612585990188
6.077669888,1.0002823853161376,33.52038394972576
6.08473088,1.000267515641006,33.34475936467717
6.091791872,1.0002375566935702,33.169362778031704
6.098852352,1.0001940932823525,32.99449070090026
6.105913344,1.0001397242352608,32.8203034997861
6.112974336,1.0000771839569829,32.64689637907055
6.120035328,1.0000101465347457,32.47436391815744
6.12709632,0.9999424434075063,32.3027363001456
6.134157312,0.999877689844542,32.13200153773072
6.141217792,0.999819649847426,31.962124811709526
6.148278784,0.999771577823815,31.792967672660588
6.155339776,0.9997361441798969,31.624343288969648
6.162400768,0.9997153866784972,31.456154229994578
6.16946176,0.9997104413488711,31.288072716762315
6.176522752,0.9997216540788285,31.120000937612524
6.183583232,0.9997483802502529,30.95164505576609
6.190644224,0.999789152708676,30.782792708191437
6.197705216,0.9998417500122633,30.613341034943886
6.204766208,0.9999030489096868,30.44308213435565
6.2118272,0.9999698553063627,30.271964114317612
6.21888768,1.0000383107228252,30.099900102008775
6.225948672,1.0001045828576982,29.926924450626395
6.233009664,1.0001649069857914,29.753062442641564
6.240070656,1.0002159893257023,29.578433086575334
6.247131648,1.0002548957708373,29.40315035462316
6.25419264,1.0002794736906535,29.22751344073073
6.26125312,1.0002882298129134,29.051543028123113
6.268314112,1.0002807135864287,28.875629128981508
6.275375104,1.0002574241559037,28.699885706130726
6.282436096,1.0002195405998475,28.52455863658355
6.289497088,1.000169200332956,28.349793585485216
6.296557568,1.0001091601107692,28.175814666752082
6.30361856,1.0000428787144295,28.002703356980447
6.310679552,0.9999739791345299,27.83046090376714
6.317740544,0.9999064265396815,27.65915796339931
6.324801536,0.9998439049123281,27.488771975090945
6.331862528,0.999789985112355,27.31917300683522
6.338923008,0.9997476727007164,27.150197217966305
6.345984,0.9997194369714871,26.981701345090123
6.353044992,0.9997067725904563,26.813475268763508
6.360105984,0.9997103790026315,26.64533590211243
6.367166976,0.9997302363316402,26.4770211282282
6.374227968,0.9997651491245733,26.308318951980766
6.381288448,0.9998132284124089,26.13905450039783
6.38834944,0.9998716502156472,25.969046517141333
6.395410432,0.9999373766130902,25.798223201389263
6.402471424,1.000006530676459,25.626424355424653
6.409532416,1.0000753362502186,25.453685788048
6.416592896,1.0001397883552228,25.280029663295306
6.423653888,1.000196427700511,25.105558575019245
6.43071488,1.0002421104908261,24.930365506844808
6.437775872,1.0002740597183317,24.75463807097246
6.444836864,1.0002906195123924,24.578559539040302
6.451897856,1.0002907717291367,24.402356182050074
6.458958336,1.0002745847318613,24.22630659580958
6.466019328,1.0002429144790277,24.050505107563986
6.47308032,1.0001974190957346,23.875262913820734
6.480141312,1.0001407451605326,23.70070743886682
6.487202304,1.0000759439964373,23.52694796325231
6.494262784,1.0000068121383914,23.3541290580233
6.501323776,0.9999370814156298,23.18223725900872
6.508384768,0.9998707680074218,23.011273440052154
6.51544576,0.9998114749107508,22.841158586108648
6.522506752,0.9997625556261669,22.67177069288319
6.529567744,0.9997269333821723,22.502926891765863
6.536628224,0.999706495755227,22.334512174519382
6.543689216,0.9997023880535806,22.1662868261569
6.550750208,0.9997149168320877,21.99795878915899
6.5578112,0.9997433878056173,21.829359966754545
6.564872192,0.9997862050748374,21.660232896562796
6.571932672,0.9998408944412196,21.490463117985957
6.578993664,0.9999045622003138,21.31986931061773
6.586054656,0.999973601779901,21.14837461559683
6.593115648,1.0000441479088,20.975896631088016
6.60017664,1.0001122638887332,20.80250017712463
6.607237632,1.0001739464744257,20.628180929147423
6.614298112,1.000225827445139,20.453087609774016
6.621359104,1.000265154924007,20.277378224644536
6.628420096,1.0002895103458922,20.101226477581438
6.635481088,1.0002976085156983,19.924809006579313
6.64254208,1.0002889238349149,19.748388442862392
6.649603072,1.000263885384219,19.57223721446293
6.656663552,1.0002239955460763,19.396473121921183
6.663724544,1.0001714447247358,19.22136354518428
6.670785536,1.000109067843654,19.047001063805908
6.677846528,1.0000404684115527,18.873528049921937
6.68490752,0.9999693552780087,18.701016555697848
6.691968,0.9998999295709582,18.52947751067142
6.699028992,0.9998358843517846,18.358815650058425
6.706089984,0.9997809392943248,18.188983068079356
6.713150976,0.9997380148825118,18.019780651298525
6.720211968,0.9997097907768661,17.851116937452396
6.72727296,0.999697721970587,17.682656070973707
6.73433344,0.9997025127916868,17.51426606731117
6.741394432,0.999723958736159,17.34571229847714
6.748455424,0.9997609087580639,17.17672582787558
6.755516416,0.9998111690260214,17.007158074371024
6.762577408,0.9998719690484558,16.836849946457196
6.769637888,0.9999400705695015,16.665592091159002
6.77669888,1.0000114878259065,16.49342863480129
6.783759872,1.0000822463019368,16.320283176369763
6.790820864,1.0001484587574736,16.146151805236617
6.797881856,1.000206347539119,15.971210739636756
6.804942848,1.0002525942854745,15.795520703885906
6.812003328,1.0002846954321178,15.619296891496294
6.81906432,1.0003007903001881,15.442741700667828
6.826125312,1.0002999830087227,15.266086363772423
6.833186304,1.0002822884966143,15.089516533391091
6.840247296,1.0002486515945865,14.91330729822441
6.847307776,1.0002009265402527,14.737636898419865
6.854368768,1.000141851641084,14.562671232768576
6.86142976,1.0000746393206414,14.388582191613766
6.868490752,1.0000030736372272,14.215431273876973
6.875551744,0.9999312221909497,14.043266126588673
6.882612736,0.9998630801398358,13.872022942890794
6.889673216,0.9998024171709592,13.701685334176922
6.896734208,0.9997527621723006,13.53209355031061
6.9037952,0.9997167886012932,13.36303823841818
6.910856192,0.9996967281416544,13.194387645589828
6.917917184,0.9996934779454393,13.02591648850288
6.924978176,0.9997073518597317,12.857303213373594
6.932038656,0.999737765092342,12.688447312056951
6.939099648,0.9997827132758376,12.519049307482675
6.94616064,0.9998399017979744,12.348939629352476
6.953221632,0.9999061539300094,12.178010977248759
6.960282624,0.9999775624231065,12.006098513513717
6.967343104,1.0000503783425614,11.833234778575893
6.974404096,1.000120311723436,11.659334841216518
6.981465088,1.0001835668932322,11.484564794095231
6.98852608,1.0002364625465772,11.308956536660009
6.995587072,1.0002762218573136,11.132716041945521
7.002648064,1.0003004087208305,10.95605335334454
7.009708544,1.0003076845138006,10.77911904303463
7.016769536,1.0002977025452964,10.602227954240636
7.023830528,1.00027094998002,10.42559836778743
7.03089152,1.0002288209565058,10.24940609530518
7.037952512,1.0001738810533298,10.07386684442551
7.045012992,1.0001088523403332,9.899106081815745
7.052073984,1.0000377902055049,9.72532195460601
7.059134976,0.9999643590870111,9.552493820108358
7.066195968,0.9998928146977822,9.380660397903796
7.07325696,0.9998271461314316,9.209729119547356
7.080317952,0.9997709451455703,9.039655462806158
7.087378432,0.9997275537277269,8.870235445131234
7.094439424,0.9996993748956793,8.701328629100232
7.101500416,0.9996879505316582,8.532663068875797
7.108561408,0.9996939217718588,8.364017348949488
7.1156224,0.9997170686934929,8.195216815230967
7.122683392,0.9997560239893987,8.025947926625213
7.129743872,0.9998087083617326,7.856073127600441
7.136804864,0.999872216338891,7.685345526031904
7.143865856,0.9999428211213433,7.5137373819847175
7.150926848,1.0000167860523408,7.341157410750417
7.15798784,1.000089801648215,7.167515168508766
7.16504832,1.0001577510117836,6.992937875090081
7.172109312,1.0002169713697473,6.817463511863154
7.179170304,1.0002640071355482,6.641262585258341
7.186231296,1.0002962356219107,6.4645180023986315
7.193292288,1.0003118306676502,6.287440196637545
7.20035328,1.0003099052813413,6.110220162326442
7.20741376,1.0002906305566532,5.933192273195966
7.214474752,1.0002547974400424,5.756472141598958
7.221535744,1.000204679791591,5.580358376622684
7.228596736,1.0001429733519065,5.4050110439257875
7.235657728,1.00007320942938,5.2305375085010075
7.242718208,0.9999990449371042,5.057027678760545
7.2497792,0.9999247964127973,4.884547646713825
7.256840192,0.9998546912020628,4.713030691622565
7.263901184,0.9997924765503053,4.54240113495523
7.270962176,0.9997419439308177,4.372561752483784
7.278023168,0.9997057915436909,4.203341217832827
7.285083648,0.999685889086117,4.0344014047018915
7.29214464,0.9996836946835755,3.8657060337172364
7.299205632,0.9996991391204436,3.69686433313924
7.306266624,0.9997315117741673,3.527701989176817
7.313327616,0.9997788517888613,3.3580117965691763
7.320388096,0.9998387800357628,3.187539724570532
7.327449088,0.9999077106299222,3.016216996964785
7.33451008,0.9999817681380008,2.8438957007825527
7.341571072,1.0000569685645293,2.67054531644543
7.348632064,1.000129102465207,2.496218134824727
7.355693056,1.000194011785245,2.3208817001634494
7.362753536,1.0002480098992226,2.1447536783395083
7.369814528,1.0002882740278571,1.9679756644499367
7.37687552,1.0003122177653723,1.7907393858801852
7.383936512,1.0003186691134698,1.613286072120057
7.390997504,1.000307240324508,1.43586200149289
7.398058496,1.0002785538006047,1.2586905888542328
7.405118976,1.00023414648729,1.0820261696889766
7.412179968,1.0001764308074503,0.9060423127228204
7.41924096,1.000108796871905,0.7309243322285954
7.426301952,1.0000348749862988,0.5567538696582706
7.433362944,0.9999588105090009,0.3835794900830466
7.440423424,0.9998850358566798,0.21143519038136138
7.447484416,0.9998174988996067,0.04025292852277626
7.454545408,0.9997600459181448,-0.13009643350213573
7.4616064,0.9997160134575146,-0.2997283517981948
7.468667392,0.9996877703367724,-0.4689015971989018
7.475728384,0.9996770695311021,-0.6377994157888893
7.482788864,0.9996843545671722,-0.8066977504458521
7.489849856,0.9997094477173566,-0.9757943878600895
7.496910848,0.9997506942066708,-1.1453770756567143
7.50397184,0.9998060914693337,-1.3156084575007676
7.511032832,0.9998723096621565,-1.486672812064728
7.518093312,0.9999457931088503,-1.6587031451919134
7.525154304,1.0000224396915218,-1.8317650236521246
7.532215296,1.0000977715029076,-2.00587265234399
7.539276288,1.0001678081068615,-2.180977833595895
7.54633728,1.0002284553271126,-2.3569730290973254
7.553398272,1.0002763572139544,-2.5337344811604217
7.560458752,1.0003087310024068,-2.7110724482076436
7.567519744,1.000323782588276,-2.888749097000642
7.574580736,1.0003206821420703,-3.066466081366425
7.581641728,1.0002995792248892,-3.24407680979462
7.58870272,1.0002615707098228,-3.4212867071300495
7.595763712,1.0002087483626987,-3.5978950996520322
7.602824192,1.0001442084240766,-3.773676514678754
7.609885184,1.0000714263221915,-3.9485599920079237
7.616946176,0.9999944522281542,-4.122418443132562
7.624007168,0.9999178058184403,-4.295226739336582
7.63106816,0.9998454529104454,-4.467036100074335
7.63812864,0.999781679390183,-4.637901697782402
7.645189632,0.9997301500208711,-4.808014666304399
7.652250624,0.9996935444238857,-4.977518653101817
7.659311616,0.9996740427903928,-5.146637148208513
7.666372608,0.9996729019655002,-5.315621382912623
7.6734336,0.9996900446553404,-5.484716070920737
7.68049408,0.9997245991906678,-5.654196490777639
7.687555072,0.9997746139556435,-5.824237795380684
7.694616064,0.9998372869729165,-5.995055227444379
7.701677056,0.9999091320693109,-6.166796522298617
7.708738048,0.9999861976072452,-6.339571540311088
7.715798528,1.0000641624982465,-6.51338543980197
7.72285952,1.0001385292188307,-6.688305641554699
7.729920512,1.000205268828625,-6.864132683176948
7.736981504,1.0002604164241122,-7.04085854795203
7.744042496,1.0003011381002587,-7.218229451546784
7.751103488,1.0003250191097648,-7.396017360883525
7.758163968,1.0003304676850142,-7.574061315046889
7.76522496,1.0003175097038561,-7.752062035340585
7.772285952,1.0002866339220178,-7.929789266571833
7.779346944,1.0002396293385623,-8.106950464177327
7.786407936,1.0001791713363484,-8.283388697711624
7.793468416,1.0001084076396924,-8.458954515966125
7.800529408,1.0000314733497244,-8.633562378471535
7.8075904,0.9999527133787379,-8.807074197207605
7.814651392,0.9998763738974586,-8.979542165949328
7.821712384,0.9998067807874375,-9.150996717994364
7.828773376,0.9997480209288573,-9.321611278649085
7.835833856,0.9997032012605621,-9.49151863752513
7.842894848,0.9996750346439004,-9.660910806865367
7.84995584,0.9996650937344191,-9.830087667537232
7.857016832,0.999673810924511,-9.999212775900808
7.864077824,0.9997008604781882,-10.168602434888571
7.871138816,0.9997446653332087,-10.338501810403738
7.878199296,0.9998029034130085,-10.509116897445553
7.885260288,0.9998723093935794,-10.680576362739588
7.89232128,0.9999488494852454,-10.853045018128249
7.899382272,1.0000284151616572,-11.026586393468548
7.906443264,1.00010636165591,-11.201230486464443
7.913503744,1.0001784933698963,-11.376876632380867
7.920564736,1.000240791076056,-11.553482427406879
7.927625728,1.000289597241317,-11.730841877713994
7.93468672,1.0003221034741294,-11.908795901691128
7.941747712,1.0003365908074995,-12.08704806380159
7.948808704,1.0003322044362202,-12.265403478240867
7.955869184,1.000309150410154,-12.44359014287045
7.962930176,1.0002686991891296,-12.621326709637716
7.969991168,1.0002131713273603,-12.798410905095981
7.97705216,1.0001453854574345,-12.974682338020338
7.984113152,1.0000694835798585,-13.149981352904998
7.991173632,0.9999895006468571,-13.324231343441676
7.998234624,0.9999098591492271,-13.497405185925327
8.005295616,0.9998352156356709,-13.669500044886933
8.012356608,0.9997696648438426,-13.840664655959799
8.0194176,0.9997170445194049,-14.011035023079332
8.026478592,0.999680207637633,-14.180779513585183
8.033539072,0.9996611261550723,-14.350189999074518
8.040600064,0.9996610345195968,-14.519434796152005
8.047661056,0.9996800455717438,-14.68880560597501
8.054722048,0.9997169473546912,-14.85858769633297
8.06178304,0.9997697329177937,-15.028976786801177
8.068844032,0.9998355921307372,-15.200213130406572
8.075904512,0.9999107227433176,-15.372372827721488
8.082965504,0.9999909193807821,-15.545626341045278
8.090026496,1.0000717626286295,-15.719994964958255
8.097087488,1.0001486925130036,-15.895448700432748
8.10414848,1.000217403069416,-16.07188904624689
8.11120896,1.000273951824951,-16.249210705696488
8.118269952,1.0003151025203125,-16.42719935374862
8.125330944,1.0003386745080798,-16.60562785614209
8.132391936,1.0003432283088203,-16.78429095733184
8.139452928,1.0003286374517266,-16.962876882156735
8.14651392,1.000295487612363,-17.141172692648414
8.1535744,1.0002456900219485,-17.3189189974121
8.160635392,1.0001819900542037,-17.495869271304787
8.167696384,1.0001079618814348,-17.671911098083452
8.174757376,1.0000277448314285,-17.84690059549987
8.181818368,0.999945803247014,-18.020786574012625
8.188878848,0.9998668113857192,-18.19359678357157
8.19593984,0.9997951671382946,-18.365371880961625
8.203000832,0.999734837662309,-18.536235412159968
8.210061824,0.999689232643484,-18.70642236848908
8.217122816,0.9996611105642202,-18.876069087863822
8.224183808,0.9996519426914852,-19.045478873729916
8.231244288,0.9996622378822491,-19.214920273418805
8.23830528,0.9996915570884625,-19.384611101015146
8.245366272,0.9997380989678555,-19.5548687777478
8.252427264,0.9997995160446229,-19.72584301461766
8.259488256,0.9998722395063312,-19.8977274077454
8.266548736,0.9999521811056117,-20.0706696818534
8.273609728,1.0000349168231932,-20.24473348876006
8.28067072,1.000115754295484,-20.419922383266037
8.287731712,1.0001903863942363,-20.596194900694783
8.294792704,1.0002542377105612,-20.77342526300748
8.301853696,1.0003040173914595,-20.951429429915223
8.308914176,1.0003366834262561,-21.130021302305156
8.315975168,1.0003505751851616,-21.30890652743078
8.32303616,1.000344818473963,-21.48791592818227
8.330097152,1.0003196384656141,-21.666675104925226
8.337158144,1.0002764311307155,-21.845025279548462
8.344219136,1.0002177432467634,-22.022674141592194
8.351279616,1.0001466688709928,-22.19944036788042
8.358340608,1.000067199500219,-22.37518097619082
8.3654016,0.9999837958767552,-22.549854619870004
8.372462592,0.9999012811124244,-22.72339672437335
8.379523584,0.9998241025470919,-22.89581295184198
8.386584064,0.9997566639477865,-23.067274055678123
8.393645056,0.9997027715307655,-23.237915078937704
8.400706048,0.9996654655314634,-23.407918013689
8.40776704,0.9996468694905688,-23.577559413405627
8.414828032,0.9996480150054572,-23.74711729400031
8.421889024,0.9996689702657724,-23.9167959043181
8.428949504,0.9997085182765333,-24.086880223587084
8.436010496,0.9997644911454766,-24.257652116731407
8.443071488,0.9998337602975065,-24.429282583033864
8.45013248,0.999912385546665,-24.60193690740856
8.457193472,0.9999960925653427,-24.775679985168257
8.464253952,1.0000800581133245,-24.950615428949018
8.471314944,1.0001597794894965,-25.12662917479096
8.478375936,1.0002305290206748,-25.303753762867967
8.485436928,1.0002884923451079,-25.481705470207025
8.49249792,1.0003303988889547,-25.660378106883744
8.499558912,1.0003537542052678,-25.83948836578236
8.506619392,1.0003572323735719,-26.01880591326308
8.513680384,1.0003407124573294,-26.19806983133753
8.520741376,1.0003049243626945,-26.376970605762743
8.527802368,1.0002521283895633,-26.555289758037386
8.53486336,1.0001850012604916,-26.7327764631246
8.54192384,1.0001074572891437,-26.909301085556695
8.548984832,1.0000237023366274,-27.084729382789288
8.556045824,0.9999383089741402,-27.25902761053966
8.563106816,0.9998563961234723,-27.432182705318574
8.570167808,0.9997823656169311,-27.604276528913854
8.5772288,0.9997204242286892,-27.7754599896519
8.58428928,0.9996740226703387,-27.945876128633525
8.591350784,0.9996459505451633,-28.115837930232136
8.598411264,0.9996376105556658,-28.285530632809056
8.605471744,0.9996496501687969,-28.45524093194901
8.612533248,0.9996812976776582,-28.625256580832215
8.619593728,0.9997309699736586,-28.795838690916895
8.626655232,0.9997956723059968,-28.967231482769332
8.633715712,0.9998720797885216,-29.139550614143758
8.640776192,0.9999556807326663,-29.313027403385398
8.647837696,1.0000419601662083,-29.487640994399822
8.654898176,1.0001259997163163,-29.663430024866027
8.66195968,1.0002030731090936,-29.840351926313907
8.66902016,1.000268832542826,-30.018214821149364
8.676081664,1.0003195956228597,-30.196913206090866
8.683142144,1.0003524798973977,-30.376201978194658
8.690202624,1.0003657387057383,-30.555805952659863
8.697264128,1.0003583700844454,-30.735475488701308
8.704324608,1.000330891033853,-30.914919621266584
8.711386112,1.0002848894120848,-31.093875519500845
8.718446592,1.0002227553387084,-31.272101100624724
8.725507072,1.0001480181886209,-31.449398699288814
8.732568576,1.0000646878322312,-31.625629715192012
8.739629056,0.9999777394357866,-31.80070562116763
8.74669056,0.9998918825419517,-31.974627678691736
8.75375104,0.9998119172222082,-32.14741479141002
8.76081152,0.9997423978257554,-32.31916841112211
8.767873024,0.9996871658160942,-32.49009877137076
8.774933504,0.9996493343382824,-32.6604013648758
8.781995008,0.9996312713807756,-32.8303068402911
8.789055488,0.9996337187816196,-33.00014734746628
8.796116992,0.9996569147417254,-33.170116831112566
8.803177472,0.9996993211075946,-33.34055526436974
8.810237952,0.99975868303583,-33.51171058399632
8.817299456,0.9998316250911107,-33.68379900149891
8.824359936,0.9999141182953992,-33.85691781592924
8.83142144,1.0000015669632523,-34.031226942417774
8.83848192,1.0000891098468734,-34.20676080058097
