freq,mag,phase
6.0,1.0000237447520395,-15.66378846743983
6.01520896,1.0000109944976197,-16.167171273790373
6.030418432,0.9999977750415813,-16.67040774719712
6.045627392,0.9999845474488382,-17.173576468697455
6.060836352,0.9999717837992407,-17.676603245956517
6.076045824,0.9999598295113078,-18.179531158214672
6.091254784,0.9999495309715657,-18.682398624938617
6.106463744,0.9999411844517557,-19.185190358511353
6.121673216,0.9999353326916688,-19.687932257470358
6.136882176,0.9999317800987277,-20.190641226367052
6.152091136,0.9999311271840934,-20.693386799123573
6.167300608,0.9999332051448647,-21.196231401012323
6.182509568,0.9999381368892251,-21.699127164232195
6.197718528,0.9999455619086768,-22.202152738297777
6.212928,0.9999551456327,-22.70532314850143
6.22813696,0.9999664170681282,-23.20863532190933
6.24334592,0.9999790864091928,-23.712162674043995
6.25855488,0.9999925670031912,-24.215928025534318
6.273764352,1.0000060287457793,-24.719858746651838
6.288973312,1.000019147682961,-25.224023777439204
6.304182272,1.0000312954964456,-25.728365723455404
6.319391744,1.0000419397895026,-26.23292179444545
6.334600704,1.0000503994174412,-26.73762806511795
6.349809664,1.0000568125963902,-27.24248108567782
6.365019136,1.0000602481372642,-27.747420416302354
6.380228096,1.0000609009016215,-28.25243297442638
6.395437056,1.0000586275092895,-28.757521326290032
6.410646528,1.0000538026864665,-29.262595222753003
6.425855488,1.0000462655400368,-29.767640177708774
6.441064448,1.0000365188540128,-30.272593594542986
6.45627392,1.0000248024404295,-30.77752447430266
6.47148288,1.0000119492198427,-31.282350003639316
6.48669184,0.9999982930987218,-31.787061614069604
6.501901312,0.9999844237732398,-32.29160396687688
6.517110272,0.9999709080676832,-32.79609860147363
6.532319232,0.999958558521822,-33.300426244153165
6.547528704,0.9999476704071825,-33.8047047286273
6.562737664,0.9999388265159966,-34.30890613461462
6.577946624,0.9999324422067144,-34.813061201778886
6.593156096,0.9999288148761151,-35.317200959006406
6.608365056,0.9999280547654437,-35.82135150381616
6.623574016,0.9999302396131653,-36.32558718075871
6.638783488,0.999935310763301,-36.82986604632388
6.653992448,0.999942950299254,-37.33429807656414
6.669201408,0.9999530197500683,-37.838863298294285
6.68441088,0.99996493866722,-38.34360490094596
6.69961984,0.9999781960918115,-38.84858702922583
6.7148288,0.9999922039004122,-39.35374326374146
6.730038272,1.0000064370645523,-39.85915454354754
6.745247232,1.000020205942328,-40.36475176199238
6.760456192,1.0000330715291534,-40.87056542761087
6.775665152,1.0000442507800447,-41.37656766335303
6.790874624,1.0000533044571056,-41.88274553141541
6.806083584,1.0000599700482526,-42.38905857846178
6.821292544,1.0000636381339931,-42.895497731861894
6.836502016,1.000064439261591,-43.401981547336945
6.851710976,1.0000621532285008,-43.908548833865225
6.866919936,1.0000571870569825,-44.41512331606716
6.882129408,1.000049345111276,-44.92163032283435
6.897338368,1.0000391096122503,-45.42810878089234
6.912547328,1.0000269932251924,-45.934497577520844
6.9277568,1.0000133941704934,-46.4407684774902
6.94296576,0.9999990025438769,-46.94692803136606
6.95817472,0.9999844580639459,-47.45297420592069
6.973384192,0.9999703048577454,-47.95885310421028
6.988593152,0.9999572297556291,-48.46464211764834
7.003802112,0.9999457172196389,-48.970355196457376
7.019011584,0.9999364146738389,-49.47593672727651
7.034220544,0.9999296511714157,-49.98150811924649
7.049429504,0.9999257538438693,-50.4870715571134
7.064638976,0.9999248961757499,-50.992639179004094
7.079847936,0.9999271070064567,-51.498255331034706
7.095056896,0.9999322499636987,-52.0039558898275
7.110266368,0.9999403545173018,-52.50974911313601
7.125475328,0.9999507668624142,-53.015763380410476
7.140684288,0.9999630582198096,-53.5219903789356
7.15589376,0.9999770379918904,-54.02832759721041
7.17110272,0.9999918917611194,-54.534935494276255
7.18631168,1.0000069504975253,-55.04175741820328
7.201521152,1.0000213892503553,-55.54880822801374
7.216730112,1.0000348656897955,-56.05610657803894
7.231939072,1.0000467216882298,-56.56358203380366
7.247148544,1.0000563753962435,-57.07121100769695
7.262357504,1.0000633752225732,-57.57902120921217
7.277566464,1.0000674602197352,-58.08694721321145
7.292775424,1.0000685052880594,-58.59492665589188
7.307984896,1.0000663202949671,-59.1029724655743
7.323193856,1.000061121806618,-59.61102454582192
7.338402816,1.0000529626750403,-60.11903425111858
7.353612288,1.000042239361752,-60.62699061250659
7.368821248,1.000029713310994,-61.13483533291936
7.384030208,1.0000152713996984,-61.64258957622933
7.39923968,1.0000002494856934,-62.150198628509976
7.41444864,0.9999849265322891,-62.65767297530025
7.4296576,0.9999699941741873,-63.16502869099757
7.444867072,0.9999561051679594,-63.67224679361999
7.460076032,0.9999439663066297,-64.17932978614635
7.475284992,0.9999338997022507,-64.68636470748926
7.490494464,0.9999268305915676,-65.19332840254974
7.505703424,0.9999225484989068,-65.70027937011552
7.520912384,0.9999214514976345,-66.20720149640046
7.536121856,0.9999236879001611,-66.71423009292516
7.551330816,0.9999289703881634,-67.22133217872891
7.566539776,0.99993736233938,-67.72855804145269
7.581749248,0.9999482230484543,-68.2359613843672
7.596958208,0.9999612600324085,-68.74352193310621
7.612167168,0.9999758584301054,-69.25130478115084
7.62737664,0.9999914640039035,-69.75931317307302
7.6425856,1.0000071856838386,-70.26758464388796
7.65779456,1.0000226191587753,-70.77605047346309
7.673004032,1.0000369321580722,-71.28478157556528
7.688212992,1.0000494344597708,-71.79372319183628
7.703421952,1.0000597475267325,-72.30283751674614
7.718631424,1.000067212922666,-72.8120760638061
7.733840384,1.0000717836261064,-73.3214938261889
7.749049344,1.0000730271313405,-73.8309453346022
7.764258304,1.0000710150223073,-74.34042877992484
7.779467776,1.0000654815511114,-74.84997251644253
7.794676736,1.000057062026438,-75.35943702885602
7.809885696,1.0000459991933528,-75.86886126049794
7.825095168,1.0000326363937377,-76.3781767408051
7.840304128,1.0000178102422328,-76.88733118629294
7.855513088,1.0000018228706042,-77.39641295583776
7.87072256,0.9999855622915286,-77.90530064579491
7.88593152,0.9999698361835073,-78.41405756066902
7.90114048,0.9999551303237427,-78.92268908752119
7.916349952,0.9999421773652292,-79.43117878401122
7.931558912,0.9999316134817606,-79.93957375147295
7.946767872,0.9999236302243046,-80.44793512864268
7.961977344,0.9999189590651371,-80.95622794965465
7.977186304,0.9999177740298602,-81.46454933647081
7.992395264,0.9999197607668275,-81.97292349855618
8.007604736,0.9999252868882723,-82.48137090234215
8.022813696,0.9999338524836466,-82.9899554488224
8.038022656,0.9999451981454496,-83.49869916634647
8.053232128,0.9999588893725218,-84.00762700234195
8.068441088,0.9999741931209233,-84.51680647720413
8.083650048,0.9999906522727061,-85.02618874906469
8.09885952,1.0000074705434903,-85.53581717365454
8.11406848,1.0000236609192616,-86.04571458895462
8.12927744,1.000038855861837,-86.55583580271308
8.144486912,1.0000522759549695,-87.06615806624018
8.159695872,1.0000632726403258,-87.57669745442085
8.174904832,1.0000714846847851,-88.08739300247701
8.190114304,1.000076494048846,-88.59821160103576
8.205323264,1.0000779117154255,-89.10913010246247
8.220532224,1.0000759882570764,-89.62007360097705
8.235741696,1.0000705642285774,-90.13102456599049
8.250950656,1.000061755357684,-90.64194502884706
8.266159616,1.0000502368612811,-91.15278248200471
8.281368576,1.0000362380678052,-91.66350719692059
8.296578048,1.0000205111723897,-92.1741073337915
8.311787008,1.0000037187158828,-92.68455113183569
8.326995968,0.9999865792303549,-93.19482931616174
8.34220544,0.9999698317902782,-93.70496046972936
8.3574144,0.9999541388321185,-94.21494459880692
8.37262336,0.9999402928951314,-94.72479185564187
8.387832832,0.9999288163182474,-95.23452863563672
8.403041792,0.9999203863232143,-95.74419396483019
8.418250752,0.9999151374589772,-96.25381393124285
8.433460224,0.9999135944629236,-96.76342334924938
8.448669184,0.9999154846057152,-97.27309503566266
8.463878144,0.9999210145970518,-97.78285927265334
8.479087616,0.9999299311833711,-98.29272531685712
8.494296576,0.9999418102611968,-98.8027732026704
8.509505536,0.9999561581035005,-99.31302264847722
8.524715008,0.9999721818899417,-99.82351310570532
8.539923968,0.9999895344193189,-100.33422921453561
8.555132928,1.0000072047005788,-100.84519834311844
8.5703424,1.0000245055896917,-101.3564177055026
8.58555136,1.0000407146616577,-101.86787853214774
8.60076032,1.0000550323990935,-102.37958846978579
8.615969792,1.0000670172669919,-102.8914786419894
8.63117824,1.0000759114303395,-103.40354980000208
8.646387712,1.0000813966873874,-103.91575139376395
8.661597184,1.0000832606747492,-104.42803854568116
8.676805632,1.0000814547525771,-104.9403832800963
8.692015104,1.0000759121735627,-105.45270805721593
8.707224576,1.0000668989370278,-105.96500106484159
8.722433024,1.0000548709206878,-106.477229546615
8.737642496,1.0000402087371125,-106.98931598853011
8.752851968,1.0000236999667833,-107.50124353406028
8.768060416,1.000005943364978,-108.0130740366091
8.783269888,0.9999877899490678,-108.52468011235445
8.79847936,0.999969944619598,-109.03612164676964
8.813687808,0.999953229669765,-109.54737910329261
8.82889728,0.9999383387620603,-110.05851348412529
8.844106752,0.9999259869302568,-110.56952432348542
8.8593152,0.9999167405773325,-111.08045488759392
8.874524672,0.9999109136610703,-111.59130752898314
8.889734144,0.9999088467175609,-112.10216985487664
8.904942592,0.9999106183899703,-112.61307697216643
8.920152064,0.9999161804854644,-113.12403579002483
8.935361536,0.9999254165121313,-113.63512960999911
8.950569984,0.9999377416007755,-114.14641780429761
8.965779456,0.9999527809939556,-114.65788492545232
8.980988928,0.999969681542506,-115.16960435635966
8.996197376,0.9999879867773829,-115.68156760314376
9.011406848,1.0000067342579073,-116.19378690655893
9.02661632,1.0000251773757007,-116.70628573420187
9.041824768,1.000042513057186,-117.21902968843172
9.05703424,1.000057946305055,-117.73201209731398
9.072243712,1.0000708005414989,-118.2452201950931
9.08745216,1.0000805102100205,-118.7585920254409
9.102661632,1.0000867072354882,-119.27211977673396
9.117871104,1.0000890320655957,-119.78572299910765
9.133079552,1.0000873824947252,-120.29935303904213
9.148289024,1.0000817782732425,-120.81302360834633
9.163498496,1.0000726135493638,-121.32661941863721
9.178706944,1.000060080037496,-121.84012321241747
9.193916416,1.0000447566798156,-122.35353490519029
9.209125888,1.0000273005039833,-122.86677273843729
9.224334336,1.0000085695452552,-123.37980101091178
9.239543808,0.9999892325879564,-123.89267882867934
9.25475328,0.9999701607747733,-124.40534528987435
9.269961728,0.9999523048103515,-124.91784928767075
9.2851712,0.999936260380058,-125.4301776734022
9.300380672,0.9999228925717032,-125.94236750575115
9.31558912,0.9999126775171758,-126.45446269941952
9.330798592,0.9999061601851879,-126.96646991931861
9.346008064,0.9999036608981078,-127.47847336878209
9.361216512,0.9999051692985634,-127.99049547998811
9.376425984,0.9999108022913124,-128.5026275318365
9.391635456,0.9999201769157952,-129.01484554076416
9.406843904,0.9999329934204007,-129.52726764291805
9.422053376,0.999948668583076,-130.0398823802078
9.437262848,0.9999665677569056,-130.55273997297206
9.452471296,0.999985972466248,-131.06584318270762
9.467680768,1.000005912740991,-131.5792318049558
9.48289024,1.0000254979145085,-132.09288021679376
9.498098688,1.0000441942157272,-132.60682368979266
9.51330816,1.0000607750489687,-133.12101041376175
9.528516608,1.0000748074243113,-133.6354165577819
9.54372608,1.0000854574080587,-134.15001658129765
9.558935552,1.0000923782137388,-134.66473866334178
9.574144,1.0000952159460172,-135.1795818329517
9.589353472,1.0000938413199112,-135.69445399539214
9.604562944,1.0000883813515047,-136.20933788547197
9.619771392,1.0000788723521268,-136.72416056249904
9.634980864,1.0000657975030889,-137.23890348985717
9.650190336,1.0000497517477898,-137.75350323496306
9.665398784,1.0000313456253989,-138.2679166717895
9.680608256,1.0000114736669556,-138.7821562286647
9.695817728,0.9999908769014506,-139.2961797897075
9.711026176,0.9999705539617856,-139.80999797231212
9.726235648,0.9999512279076791,-140.32360615679656
9.74144512,0.9999339207048107,-140.83705217224423
9.756653568,0.9999193707038317,-141.35031070995294
9.77186304,0.9999081247491943,-141.86345578061952
9.787072512,0.9999008366276051,-142.3765329030233
9.80228096,0.9998976132287742,-142.88956147007292
9.817490432,0.9998988016349221,-143.40263433581416
9.832699904,0.9999043525663013,-143.91575720091214
9.847908352,0.9999139865202044,-144.42901886296514
9.863117824,0.9999272663683658,-144.94245440872604
9.878327296,0.9999437636809989,-145.45607050990762
9.893535744,0.9999626442591782,-145.96995802268634
9.908745216,0.9999831705710988,-146.4841129659407
9.923954688,1.0000044702266835,-146.99855678168808
9.939163136,1.0000255189875351,-147.5132827153912
9.954372608,1.0000455289150745,-148.02828300615136
9.96958208,1.0000635058080218,-148.5435568410885
9.984790528,1.0000787851674264,-149.05905347324943
10.0,1.000090606193041,-149.57474948350531
10.015209472,1.0000984602752254,-150.09060265237184
10.03041792,1.0001020477199465,-150.6065680312565
10.045627392,1.0001010663220484,-151.12259076775916
10.060836864,1.0000956437864212,-151.63858088831708
10.076045312,1.000085895199097,-152.15455214425117
10.091254784,1.000072353663402,-152.67038242867014
10.106464256,1.0000555492983878,-153.18609059416545
10.121672704,1.000036128201241,-153.70160419583965
10.136882176,1.000014991555935,-154.21691484230627
10.152091648,0.9999929898165046,-154.73198474341302
10.167300096,0.9999712506409034,-155.2468256593854
10.182509568,0.9999503746906535,-155.76145578423936
10.19771904,0.9999316612956328,-156.27586093840063
10.212927488,0.9999156703719614,-156.79011228743155
10.22813696,0.999903240889249,-157.30421144431472
10.243346432,0.9998948903452894,-157.8182208978564
10.25855488,0.9998910248545143,-158.33215825400774
10.273764352,0.9998918097433733,-158.84613364222014
10.288973824,0.9998971950451132,-159.36015404453966
10.304182272,0.9999070360564088,-159.8743009617921
10.319391744,0.9999208334863683,-160.3886189995744
10.334601216,0.9999380186388038,-160.90314838269055
10.349809664,0.9999579206346032,-161.41794082486192
10.365019136,0.9999797769822459,-161.93299339924545
10.380228608,1.0000024559836673,-162.44835920719495
10.395437056,1.0000251416714072,-162.96401670336937
10.410646528,1.0000467148889678,-163.4799769900932
10.425856,1.0000662546352321,-163.99620180958257
10.441064448,1.0000829512229796,-164.5126767226967
10.45627392,1.0000960247259914,-165.02937921323252
10.471483392,1.0001049801829702,-165.54623398482306
10.48669184,1.0001092503080438,-166.06321328541947
10.501901312,1.0001088801926723,-166.58022563268236
10.51710976,1.0001035473918916,-167.09723952090832
10.532319232,1.0000936242644733,-167.61421051829757
10.547528704,1.0000795961398312,-168.1310359234042
10.562737152,1.0000618878200414,-168.64772972861448
10.577946624,1.0000413494557785,-169.16421402627472
10.593156096,1.0000188906639846,-169.68046759184452
10.608364544,0.9999954050599401,-170.19648547242514
10.623574016,0.9999719532737563,-170.71224079779813
10.638783488,0.9999495464838254,-171.2277586024627
10.653991936,0.9999291049930774,-171.74302981921596
10.669201408,0.999911589979645,-172.25809721064263
10.68441088,0.9998978579756463,-172.77300397014574
10.699619328,0.9998882946419784,-173.28779756411748
10.7148288,0.9998835227491044,-173.80253921957626
10.730038272,0.9998837107952756,-174.31725943917172
10.74524672,0.9998888922183963,-174.83204544752238
10.760456192,0.999898915654152,-175.34693958902187
10.775665664,0.9999131642874769,-175.86199236793135
10.790874112,0.9999313157832944,-176.37728437644716
10.806083584,0.9999523748412144,-176.89283697718434
10.821293056,0.9999755484768744,-177.40865561153134
10.836501504,0.9999999481215168,-177.92480196948367
10.851710976,1.0000242188767934,-178.4412622638357
10.866920448,1.000047647500989,-178.95802508177863
10.882128896,1.0000690269472727,-179.47510163765565
10.897338368,1.0000872699584828,-179.9924171173745
10.91254784,1.0001018432055324,179.4900213177117
10.927756288,1.0001119991413072,178.97230712499484
10.94296576,1.000117261768344,178.45444576987742
10.958175232,1.0001174294325346,177.93655510426456
10.97338368,1.0001123613637835,177.4186449453461
10.988593152,1.0001022423437196,176.90080621464583
11.003802624,1.0000876586164624,176.38308483667726
11.019011072,1.0000691455888369,175.86553798061507
11.034220544,1.0000474600186668,175.3482048722573
11.049430016,1.0000234882372683,174.83113687310401
11.064638464,0.9999982503718343,174.31432134964678
11.079847936,0.9999728671198096,173.79778975559145
11.095057408,0.9999486218771425,173.28154201222745
11.110265856,0.9999263697979702,172.76552697968847
11.125475328,0.9999071034782867,172.24977513738966
11.1406848,0.999891684076229,171.7341948454442
11.155893248,0.9998808444642694,171.21874099619262
11.17110272,0.9998750118694564,170.70340073253723
11.186312192,0.9998745031721581,170.18805961778023
11.20152064,0.9998794251058224,169.67269130162154
11.216730112,0.9998895246050924,169.15719949393554
11.231939584,0.99990443207464,168.64153677735104
11.247148032,0.9999233955419609,168.12566658014325
11.262357504,0.9999457868323678,167.60950743886988
11.277566976,0.9999705238227391,167.0930864334335
11.292775424,0.9999966564681448,166.5763030836498
11.307984896,1.0000228848087716,166.05919154056937
11.323194368,1.0000482485278568,165.54176997353088
11.338402816,1.0000715779397762,165.02402935695855
11.353612288,1.0000917927493154,164.5059905214882
11.36882176,1.0001080901985373,163.9877114187155
11.384030208,1.0001196609293852,163.46926483357245
11.39923968,1.0001260568048138,162.95067902223275
11.414449152,1.0001268830055174,162.43203459573536
11.4296576,1.0001222165653596,161.91336193343983
11.444867072,1.000112091871129,161.3947795344179
11.460076544,1.0000969103978057,160.8763209308044
11.475284992,1.000077438009497,160.3580485435914
11.490494464,1.000054347243552,159.84000366985782
11.505702912,1.0000288165140743,159.32222435764842
11.520912384,1.000001808445389,158.80477826917527
11.536121856,0.9999743753819599,158.2876042136268
11.551330304,0.9999479085208105,157.7707446315538
11.566539776,0.9999234806566067,157.25419553982152
11.581749248,0.9999021935587451,156.7378817740858
11.596957696,0.9998849391283711,156.22178023437195
11.612167168,0.999872534476708,155.7058638486332
11.62737664,0.9998655474176474,155.19004207686066
11.642585088,0.9998642101369479,154.6742566845187
11.65779456,0.9998687467813274,154.15844694032444
11.673004032,0.9998788807545855,153.64252216177817
11.68821248,0.9998942505035604,153.12644451828916
11.703421952,0.9999142419370627,152.61014613512657
11.718631424,0.9999379854049244,152.09356047045435
11.733839872,0.9999644331587401,151.57667064840808
11.749049344,0.9999924880703717,151.05944206949493
11.764258816,1.0000209672526956,150.54184812643285
11.779467264,1.0000485770854464,150.02391272586217
11.794676736,1.000074187423542,149.50562547732653
11.809886208,1.0000966360361125,148.98705603960286
11.825094656,1.0001149425229938,148.46822356301615
11.840304128,1.0001281533895812,147.949172874577
11.8555136,1.0001359312783362,147.42997056093498
11.870722048,1.0001375773113845,146.91070339338995
11.88593152,1.0001333200283593,146.39144514299292
11.901140992,1.0001231533157897,145.8722424585956
11.91634944,1.000107462442696,145.35319637035693
11.931558912,1.0000868956980882,144.83432205690482
11.946768384,1.0000624457818932,144.31571834334218
11.961976832,1.0000350386509853,143.79739329536832
11.977186304,1.0000058989328167,143.2794129927303
11.992395776,0.9999761994683624,142.76175602361312
12.007604224,0.9999473088743518,142.2444508786768
12.022813696,0.9999204153173086,141.72747415458198
