freq,mag,phase
6.0,1.0002090600971094,-171.30432278692308
6.031496192,1.0001938364460699,-173.19181602952156
6.062991872,1.000175345486627,-175.07876738403104
6.094488064,1.0001538347363175,-176.96511544603138
6.125984256,1.000129634980347,-178.8508196975708
6.157480448,1.00010322855319,179.2641171482727
6.188976128,1.0000749074190152,177.37979318893954
6.22047232,1.0000453571715893,175.49616865786587
6.251968512,1.0000150650361457,173.61330374146743
6.283464704,0.9999846520283951,171.73116567816007
6.314960384,0.9999544149139511,169.8497893658565
6.346456576,0.9999251433965439,167.96918697321695
6.377952768,0.9998972131351727,166.08936775662534
6.40944896,0.9998712776972698,164.21031323755395
6.44094464,0.9998476343128471,162.33203266695742
6.472440832,0.9998266371077167,160.4545143061747
6.503937024,0.9998090306538578,158.57770769830583
6.535433216,0.9997947954108835,156.70165523325383
6.566928896,0.9997844473484845,154.82628093317044
6.598425088,0.9997779061131191,152.9516008038825
6.62992128,0.9997754921467648,151.0775744671643
6.661417472,0.9997772366325507,149.2041797046454
6.692913152,0.9997829839443699,147.33141072552473
6.724409344,0.9997928600520556,145.45921136902282
6.755905536,0.999806539841151,143.58757660268694
6.787401728,0.9998237118478206,141.7164835176689
6.818897408,0.9998443538968171,139.84590451491553
6.8503936,0.9998677682085415,137.97580748098804
6.881889792,0.9998939608744326,136.10619805363797
6.913385984,0.9999219373301754,134.23706862234803
6.944881664,0.9999516986206013,132.36837212199805
6.976377856,0.9999823979875291,130.5001239699991
7.007874048,1.0000136925877945,128.6323299982935
7.03937024,1.0000448421434085,126.76498580490521
7.07086592,1.0000753010949188,124.89808590802888
7.102362112,1.000104645448448,123.03163419128884
7.133858304,1.0001323783755305,121.16568456663443
7.165354496,1.0001578265843174,119.3001862554922
7.196850176,1.000180559523405,117.43521408805928
7.228346368,1.0002002616253423,115.57076301223339
7.25984256,1.0002164357861247,113.70687161118808
7.291338752,1.0002290175305908,111.8435630729725
7.322834432,1.0002375056982808,109.98084889473337
7.354330624,1.0002419612592226,108.11878640275887
7.385826816,1.000242157003762,106.25738247455052
7.417323008,1.000238008427714,104.39669882856109
7.448818688,1.0002297232379895,102.53672998543891
7.48031488,1.0002174578344003,100.67750506119289
7.511811072,1.000201370569204,98.81909922477244
7.543307264,1.000181662863209,96.96151792658854
7.574802944,1.0001587294333087,95.10474523206702
7.606299136,1.0001330202353849,93.24884514074118
7.637795328,1.000104933541281,91.39380829173058
7.66929152,1.0000749539145075,89.53967026508768
7.7007872,1.0000436654036817,87.6864093335323
7.732283392,1.0000116183944094,85.83404642597584
7.763779584,0.9999795028207369,83.98258958412701
7.795275776,0.9999476437879261,82.13201550230751
7.826771456,0.9999168009403534,80.2823173063008
7.858267648,0.9998873162554105,78.4334818495306
7.88976384,0.999860047474406,76.58549140056044
7.921260032,0.9998352467445012,74.73833592721859
7.952755712,0.999813463481281,72.8919672995152
7.984251904,0.9997950719450047,71.04635931798012
8.015748096,0.9997804456936147,69.20147317733867
8.047244288,0.9997698061880341,67.35727676465295
8.078739968,0.9997633460522596,65.51372767353405
8.11023616,0.9997612630659273,63.67078982857499
8.141732352,0.9997635957180014,61.8284148811737
8.173228544,0.9997702441281012,59.986571324277435
8.204724224,0.9997811640024695,58.14522896435899
8.236220416,0.9997961476533721,56.30429941233719
8.267716608,0.9998150118234066,54.463769528667385
8.2992128,0.9998373510263365,52.62361495787082
8.33070848,0.999862747260179,50.78378182514942
8.362204672,0.999890749573731,48.944246821099235
8.393700864,0.9999208932092716,47.104991333470615
8.425197056,0.9999527202054241,45.265966722585596
8.456692736,0.999985526870999,43.42717053965276
8.488188928,1.0000187900024824,41.58855311510989
8.51968512,1.0000519364148504,39.75016243429237
8.551181312,1.0000842855497531,37.91194444749443
8.582676992,1.0001152900821904,36.07389843001975
8.614173696,1.0001444389464327,34.236048153628715
8.645668864,1.0001711414915029,32.39837678870722
8.677165056,1.0001948149467659,30.560900506082422
8.708661248,1.0002152210586739,28.723644863245962
8.74015744,1.0002318799129082,26.8866029284007
8.771653632,1.0002444549368468,25.049812227577316
8.803149824,1.0002527896016873,23.213285013176172
8.834646016,1.0002566055644537,21.377024263000404
8.866142208,1.0002557823326157,19.54108653390434
8.897637376,1.0002504811797834,17.70547808325491
8.929133568,1.0002407488291776,15.870215012861117
8.96062976,1.0002266897149206,14.035313517938535
8.992125952,1.0002085013421729,12.2008183510924
9.023622144,1.0001865425357965,10.366738286609504
9.055118336,1.0001613271898955,8.533101150442729
9.086614528,1.0001330885519417,6.699886400813069
9.11811072,1.0001024499921325,4.867099915793512
9.149605888,1.0000699439231666,3.034789072872204
9.18110208,1.0000360330036546,1.2029120960930662
9.212598272,1.0000015128842812,-0.6285029292859092
9.244094464,0.9999669410804802,-2.4594826599417754
9.275590656,0.9999329034460018,-4.29005176790556
9.307086848,0.9998999941339087,-6.120188104929113
9.33858304,0.9998688660100515,-7.949966886325667
9.370079232,0.9998401102622391,-9.779385486487854
9.4015744,0.9998141835917027,-11.60848611161825
9.433070592,0.9997915907921977,-13.437308649339808
9.464566784,0.9997728158953424,-15.265874793114627
9.496062976,0.9997580920344716,-17.094245467126424
9.527559168,0.9997478553573161,-18.922462358815675
9.55905536,0.9997421745331175,-20.750572588006722
9.590551552,0.9997412561371449,-22.578626464347327
9.622047744,0.9997451418901269,-24.406660456264074
9.653542912,0.9997536013123178,-26.234727964039454
9.685039104,0.999766721434939,-28.062893404700972
9.716535296,0.9997841539875094,-29.8911847131805
9.748031488,0.9998055627682392,-31.719673184353177
9.77952768,0.999830742070112,-33.5483732148101
9.811023872,0.9998590866962482,-35.37733462730776
9.842520064,0.9998902586411219,-37.206591775762085
9.874016256,0.9999234654261034,-39.036177700492765
9.905511424,0.9999582580269294,-40.86612290104895
9.937007616,0.9999940188630552,-42.69643025283502
9.968503808,1.0000301611581106,-44.5271452622124
10.0,1.000065900726678,-46.35825527964797
10.031496192,1.000100603054493,-48.18978998443146
10.062992384,1.0001336709787723,-50.021731738141554
10.094488576,1.0001644683779654,-51.854086280644886
10.125983744,1.000192438811332,-53.68684129796852
10.157479936,1.0002171355816412,-55.519992371505396
10.188976128,1.0002379737072609,-57.3535060703831
10.22047232,1.0002547151746752,-59.18739065460265
10.251968512,1.0002668615753114,-61.02158790877077
10.283464704,1.000274290108943,-62.85611324433031
10.314960896,1.0002766948249324,-64.69089313390013
10.346457088,1.000274218065345,-66.52593981613643
10.377952256,1.0002667439344224,-68.36120171635025
10.409448448,1.0002545588668879,-70.1966721561037
10.44094464,1.0002375707483904,-72.03228733625672
10.472440832,1.0002163044039598,-73.86805541048277
10.503937024,1.0001909180235573,-75.7039532692715
10.535433216,1.0001620979939774,-77.53992732329458
10.566929408,1.0001302002633825,-79.37599198823169
10.5984256,1.0000958356940395,-81.212129788405
10.629920768,1.0000594783977361,-83.04831651992475
10.66141696,1.0000219961618608,-84.88455400146998
10.692913152,0.9999838983036381,-86.72085397136514
10.724409344,0.9999458612125297,-88.55720796224706
10.755905536,0.9999087400390475,-90.39363856919138
10.787401728,0.999873078452728,-92.23013121559909
10.81889792,0.9998394979640862,-94.0667384346743
10.850394112,0.9998085490822276,-95.90348873181182
10.88188928,0.9997810753071484,-97.7403884874014
10.913385472,0.9997573334267778,-99.57746777445932
10.944881664,0.9997378638299577,-101.41478574121321
10.976377856,0.9997229885011699,-103.2523741258021
11.007874048,0.9997130360200898,-105.09026219559355
11.03937024,0.9997081347082823,-106.9285197055663
11.070866432,0.9997086031111547,-108.7671551738614
11.102362624,0.9997142390030727,-110.60626432295338
11.133857792,0.9997249607190343,-112.44582851521231
11.165353984,0.9997407384199953,-114.28593690650224
11.196850176,0.999761204348394,-116.12662600278502
11.228346368,0.9997860784522699,-117.96792243733763
11.25984256,0.9998148432099954,-119.80986002955589
11.291338752,0.9998471382915126,-121.65247689949163
11.322834944,0.9998821987780846,-123.49581335062388
11.354331136,0.9999195897203873,-125.33986742437342
11.385826304,0.9999586104701506,-127.18468562436131
11.417322496,0.999998455204509,-129.03026277834124
11.448818688,1.000038569772583,-130.8766019828221
11.48031488,1.0000780722752227,-132.72370413453285
11.511811072,1.000116367737019,-134.57156209730434
11.543307264,1.0001527898724027,-136.42020007657823
11.574803456,1.00018652075569,-138.26955900309028
11.606299648,1.0002170868007367,-140.11964775755294
11.637794816,1.0002439688210498,-141.97041223655907
11.669291008,1.0002664116718452,-143.82184396656731
11.7007872,1.0002842509560002,-145.67389574007896
11.732283392,1.0002969870861198,-147.52654612769385
11.763779584,1.0003045177138472,-149.37973530892947
11.795275776,1.0003066033138353,-151.23343773789443
11.826771968,1.0003030967662307,-153.08759193970104
11.85826816,1.0002941559417875,-154.9421625654124
11.889763328,1.000279886074113,-156.79711321848427
11.92125952,1.0002605087851435,-158.65239739221354
11.952755712,1.000236311718872,-160.5079781055456
11.984251904,1.000207816583885,-162.3637986158045
12.015748096,1.0001753390197918,-164.21984256344405
12.047244288,1.0001395247671168,-166.0760783486929
12.07874048,1.0001011133197857,-167.93247241996326
12.110236672,1.000060678836461,-169.78899025239738
12.14173184,1.0000189468497287,-171.64563690173557
12.173228032,0.9999766206883809,-173.50238628952832
12.204724224,0.9999345450413135,-175.35925812147312
12.236220416,0.9998934616960821,-177.21619594387215
12.267716608,0.9998539834412568,-179.07326184000775
12.2992128,0.9998169965177058,179.0695642467898
12.330708992,0.9997831106747938,177.21227405668324
12.362205184,0.9997529589618199,175.35484909615872
12.393700352,0.9997270614611243,173.49722678104246
12.425196544,0.9997060721279676,171.63941958398527
12.456692736,0.9996901881312474,169.78136877642015
12.488188928,0.9996798197564795,167.92306301339136
12.51968512,0.9996751698140337,166.0644512444365
12.551181312,0.9996763734299845,164.20548753260402
12.582677504,0.9996834264649475,162.34617561697675
12.614173696,0.9996962635225594,160.4864411408862
12.645668864,0.9997145808557857,158.62625649902705
12.677165056,0.9997383459167244,156.76557933611582
12.708661248,0.9997668445092265,154.90438875909098
12.74015744,0.9997998193438365,153.04265034576503
12.771653632,0.9998365629073419,151.1803766032042
12.803149824,0.9998766083959547,149.31748370568354
12.834646016,0.9999191154673712,147.45399510494343
12.866142208,0.9999633471819737,145.58990014485917
12.897637376,1.000008542225389,143.72519093344866
12.929133568,1.0000538611112344,141.85989947052005
12.96062976,1.0000986772921234,139.99398513631627
12.992125952,1.0001419347177478,138.12748452343732
13.023622144,1.0001829503320423,136.26045680969105
13.055118336,1.0002209303288887,134.39287348334327
13.086614528,1.000255264878481,132.52482099187503
13.11811072,1.0002852533595497,130.65629359706026
13.149605888,1.000310322687335,128.7873680573379
13.18110208,1.000330003180853,126.91808171258403
13.212598272,1.0003438383362098,125.04849836285935
13.244094464,1.00035168987065,123.1786391400691
13.275590656,1.0003531561902725,121.3086204486496
13.307086848,1.000348437756437,119.43845015579492
13.33858304,1.0003372593118385,117.56820326020608
13.370079232,1.0003200027650743,115.69794897987903
13.4015744,1.0002969411522533,113.82772725280917
13.433070592,1.000268292062106,111.95761038541761
13.464566784,1.0002346222633034,110.08764381385355
13.496062976,1.0001964214665844,108.21787446984214
13.527559168,1.0001544128733495,106.34835289141841
13.55905536,1.0001093087060289,104.47909930256094
13.590551552,1.0000618554374832,102.6101725562624
13.622047744,1.00001294565663,100.74159135940792
13.653542912,0.9999634088869319,98.87337260801965
13.685039104,0.9999141292839293,97.00552556574289
13.716535296,0.9998659078473285,95.13806244960625
13.748031488,0.9998198776904749,93.27099660138197
13.77952768,0.9997765365203504,91.40430701983848
13.811023872,0.9997369818498469,89.53799271462032
13.842520064,0.9997017585357217,87.67203170641832
13.874016256,0.9996715914945,85.8063756186249
13.905511424,0.9996472072899493,83.94102798814352
13.937007616,0.999628878959251,82.07595239044062
13.968503808,0.9996171286290817,80.21109831665822
14.0,0.9996122287108972,78.34643690153476
