freq,mag,phase
6.0,0.999523566619886,-136.9260546367798
6.002287104,0.9995924331273381,-137.0662261525309
6.004574208,0.9996868992904663,-137.20757673394496
6.006861312,0.999801086417933,-137.35039061584126
6.009147904,0.9999278426267503,-137.49498744216194
6.011435008,1.0000588802047359,-137.64141107502792
6.013722112,1.0001861991597631,-137.78968767220087
6.016009216,1.0003015182917114,-137.9397136881818
6.01829632,1.00039768935488,-138.09126634343204
6.020583424,1.000468460093381,-138.24400601305786
6.022870016,1.0005094800595233,-138.39749626048132
6.02515712,1.000518093514693,-138.55138433946593
6.027444224,1.00049371493386,-138.7051178610353
6.029731328,1.0004379374668015,-138.85825449714116
6.032018432,1.0003542531430483,-139.01031375973454
6.034305536,1.000247961376095,-139.16104201529163
6.036592128,1.0001257546897826,-139.31002334259193
6.038879232,0.9999954478524065,-139.4572196122188
6.041166336,0.9998652246444201,-139.6024625933646
6.04345344,0.9997434296857922,-139.74582544576108
6.045740544,0.999637645645595,-139.88753554777983
6.048027648,0.9995546550800442,-140.0278737412952
6.05031424,0.99949981032658,-140.16714434885407
6.052601344,0.9994764496907114,-140.3058880044587
6.054888448,0.9994861499390907,-140.44444502856726
6.057175552,0.9995282983702143,-140.5833762506003
6.059462656,0.9996002307583892,-140.72312878272044
6.06174976,0.9996973435867736,-140.8640657257332
6.064036352,0.9998135999375226,-141.00654452336485
6.066323456,0.9999414907159787,-141.1507846507903
6.06861056,1.0000730201618782,-141.2968673001709
6.070897664,1.0001996870340393,-141.44480635766166
6.073184768,1.000313612482124,-141.59452682869818
6.075471872,1.000407591021968,-141.7456939370669
6.077758464,1.0004756200576796,-141.89801264125217
6.080045568,1.0005134493499628,-142.05106477869356
6.082332672,1.0005185641897087,-142.20442922244624
6.084619776,1.000490650102535,-142.3576234186432
6.08690688,1.0004316442928392,-142.5101302363299
6.089193984,1.0003450491949615,-142.66155960832933
6.091481088,1.0002364216855215,-142.81159003885844
6.09376768,1.0001126560112112,-142.9598754006291
6.096054784,0.9999816687359706,-143.1062611411305
6.098341888,0.9998515015173771,-143.25078180294474
6.100628992,0.999730701250649,-143.3934117292949
6.102916096,0.9996268010998092,-143.53441733304552
6.1052032,0.9995463929418752,-143.67405739699072
6.107489792,0.9994945337995504,-143.81266484623632
6.109776896,0.9994746592049252,-143.95076616057548
6.112064,0.9994878509233552,-144.08880568911235
6.114351104,0.9995334225912145,-144.2272394535357
6.116638208,0.9996084736354532,-144.3664841800123
6.118925312,0.999708243340762,-144.50701325801404
6.121211904,0.9998263727034314,-144.6490958548346
6.123499008,0.9999553977922112,-144.79296199373834
6.125786112,1.0000871693117412,-144.93869132080843
6.128073216,1.0002132457894188,-145.08626836257804
6.13036032,1.0003256674060974,-145.23557718830455
6.132647424,1.0004174166148543,-145.38632499660486
6.134934016,1.0004826177826511,-145.53820838970387
6.13722112,1.0005171250384488,-145.69075381855677
6.139508224,1.0005186752232929,-145.84357948821267
6.141795328,1.0004873294189633,-145.99613828060143
6.144082432,1.0004248746491229,-146.14800256552374
6.146369536,1.000335464221316,-146.29875480131952
6.148656128,1.0002245797458587,-146.44798293519827
6.150943232,1.0000993204636628,-146.59552740807118
6.153230336,0.9999675911859623,-146.74114518883238
6.15551744,0.9998377463940025,-146.88483912405678
6.157804544,0.9997179683662245,-147.02671057842676
6.160091648,0.9996159882057561,-147.16694865274425
6.162378752,0.9995381692081156,-147.30580032395233
6.164665344,0.9994895459969588,-147.44374681116625
6.166952448,0.99947307713918,-147.58120031463037
6.169239552,0.9994898843987382,-147.71863581893209
6.171526656,0.9995389410632822,-147.85649983834335
6.17381376,0.9996170410879952,-147.99529145498443
6.176100864,0.9997193706819916,-148.1353503520745
6.178387456,0.9998394387274736,-148.27701730330202
6.18067456,0.9999695335320565,-148.4204429663143
6.182961664,1.0001013742492533,-148.56575329548778
6.185248768,1.0002267487329979,-148.71295663890632
6.187535872,1.0003375762818438,-148.86180342714175
6.189822976,1.0004270007612472,-149.01210075824986
6.192109568,1.0004891474420634,-149.1634762162426
6.194396672,1.0005203778380898,-149.31549273018464
6.196683776,1.0005183410772225,-149.467710411276
6.19897088,1.0004834210336802,-149.61961139242138
6.201257984,1.0004176986515263,-149.77079268351625
6.203545088,1.0003253625911686,-149.9207565348998
6.20583168,1.0002123087921964,-150.0692270948617
6.208118784,1.0000855521151497,-150.2159177078173
6.210405888,0.9999532547491189,-150.36074129462375
6.212692992,0.9998237940025254,-150.5035896853555
6.214980096,0.9997052866382894,-150.6446534912399
6.2172672,0.9996053065002949,-150.78405918727177
6.219553792,0.9995302662957396,-150.92217090049974
6.221840896,0.9994847848941076,-151.05937256103874
6.224128,0.9994718474076099,-151.19615205154096
6.226415104,0.9994923201226094,-151.3329345097029
6.228702208,0.9995448316737248,-151.47023787767844
6.230989312,0.999626087603279,-151.60845623232927
6.233275904,0.9997309751980804,-151.74804928233794
6.235563008,0.9998528104838055,-151.88922150289585
6.237850112,0.9999838063120241,-152.0322312608164
6.240137216,1.0001158257901759,-152.1771283561313
6.24242432,1.0002403195166114,-152.32384465656307
6.244711424,1.000349535206233,-152.47225079344935
6.246998528,1.0004364701264252,-152.622018298449
6.24928512,1.0004955759416745,-152.7728563167351
6.251572224,1.0005233024745164,-152.92431535518327
6.253859328,1.0005176236987463,-153.07587256004624
6.256146432,1.0004791561101498,-153.22708938271936
6.258433536,1.0004101002425168,-153.37751163595212
6.26072064,1.0003149848640163,-153.5266894420035
6.263007232,1.0001997069460127,-153.6743176156989
6.265294336,1.0000716791008837,-153.82017508570232
6.26758144,0.999938851702954,-153.96413205446592
6.269868544,0.9998098015655608,-154.10608710201643
6.272155648,0.999692659610951,-154.24623669950893
6.274442752,0.9995948419347729,-154.38484693821965
6.276729344,0.9995224901308044,-154.52217226230587
6.279016448,0.9994803818967907,-154.65861851412907
6.281303552,0.9994711053369151,-154.79463957543788
6.283590656,0.9994951971820248,-154.93078749457823
6.28587776,0.9995512087056296,-155.0674568583854
6.288164864,0.9996355680169912,-155.20511096104752
6.290451456,0.9997429710899304,-155.3441953081157
6.29273856,0.9998664866599327,-155.48486192623224
6.295025664,0.9999983793095398,-155.62739676103442
6.297312768,1.0001303717623802,-155.77181624601977
6.299599872,1.0002539307373206,-155.91804140688447
6.301886976,1.0003613286247408,-156.0659351491761
6.304173568,1.0004457263853324,-156.21519608974876
6.306460672,1.0005017061603927,-156.36544500253015
6.308747776,1.0005258339978589,-156.51623264626832
6.31103488,1.0005165715620083,-156.66714235999225
6.313321984,1.0004743642146299,-156.8176215123982
6.315609088,1.0004021133269294,-156.96726098651766
6.317896192,1.0003040680002397,-157.11559699624112
6.320182784,1.0001866859730695,-157.26235300683578
6.322469888,1.0000573788311449,-157.40731475664057
6.324756992,0.9999241191164249,-157.55032369293588
6.327044096,0.9997956886627534,-157.69140592701785
6.3293312,0.999679905886017,-157.83065580514526
6.331618304,0.9995844043077919,-157.96839270181346
6.333904896,0.9995150948290968,-158.1048284197414
6.336192,0.999476313850754,-158.24047699675083
6.338479104,0.999470622966542,-158.37581352175388
6.340766208,0.9994985085910398,-158.51123376115737
6.343053312,0.9995580205143644,-158.6472843425168
6.345340416,0.9996454239187317,-158.78435554669252
6.347627008,0.9997552834348196,-158.92285530034002
6.349914112,0.9998805369443761,-159.0630088700118
6.352201216,1.0000132936170887,-159.20502265851925
6.35448832,1.0001450579499356,-159.34894387354632
6.356775424,1.000267553458509,-159.49467597362886
6.359062528,1.0003729753110133,-159.6420230508861
6.36134912,1.0004547703814881,-159.79070295612007
6.363636224,1.00050756007466,-159.94034528031096
6.365923328,1.0005280650776307,-160.09046108874466
6.368210432,1.0005149783102385,-160.24063868774923
6.370497536,1.0004692537730526,-160.3903355376108
6.37278464,1.0003935397702663,-160.53911711067377
6.375071232,1.0002928475284252,-160.6866123283732
6.377358336,1.0001733259723462,-160.83249788630337
6.37964544,1.000042802760549,-160.97649342432686
6.381932544,0.9999093482626505,-161.11853958947552
6.384219648,0.9997815340524326,-161.25867775015516
6.386506752,0.9996673732500455,-161.39700917136886
6.388793344,0.9995741340899459,-161.53382684874614
6.391080448,0.9995078542261898,-161.66940286292729
6.393367552,0.9994725803521174,-161.80423038923672
6.395654656,0.9994707245362225,-161.93878287428785
6.39794176,0.999502228978678,-162.073506805553
6.400228864,0.9995653025924734,-162.2088584347411
6.402515968,0.9996558271764451,-162.34533338854686
6.40480256,0.999768066239641,-162.48323901933622
6.407089664,0.9998948763903833,-162.62285577376747
6.409376768,1.0000283160207042,-162.7643365299187
6.411663872,1.0001599297712487,-162.90770749942266
6.413950976,1.0002812264983547,-163.0529026498622
6.41623808,1.0003846261806713,-163.19966300688563
6.418524672,1.0004635726740512,-163.34775623066292
6.420811776,1.0005130099631208,-163.49670442992613
6.42309888,1.0005298434705785,-163.64615461362095
6.425385984,1.000513047934117,-163.7955798443668
6.427673088,1.0004635723857986,-163.9444488896399
6.429960192,1.0003845297026905,-164.09238560941438
6.432246784,1.0002810662388855,-164.23897477201007
6.434533888,1.0001596690608905,-164.38386293688225
6.436820992,1.0000279044595928,-164.52687889469829
6.439108096,0.9998943510315064,-164.66797825006617
6.4413952,0.9997671885414204,-164.80714265106144
6.443682304,0.9996547636340404,-164.944510920486
6.445968896,0.9995639718256079,-165.0803627965445
6.448256,0.9995009024523372,-165.21507993015285
6.450543104,0.9994692269753171,-165.34905845592976
6.452830208,0.9994711547519155,-165.4828129652807
6.455117312,0.999506451608817,-165.6167756472342
6.457404416,0.9995730632720419,-165.7514587065281
6.459691008,0.9996666488829468,-165.88727146407373
6.461978112,0.9997811979843243,-166.02457321096236
6.464265216,0.9999095495630391,-166.16362292040537
6.46655232,1.0000436516255582,-166.3045577290776
6.468839424,1.0001748953430751,-166.4473811859553
6.471126528,1.0002948853669233,-166.59194849589815
6.473413632,1.0003961285036238,-166.73816311790708
6.475700224,1.0004721140056703,-166.88559773083267
6.477987328,1.0005181860343146,-167.03389672330476
6.480274432,1.0005312344831931,-167.18259461077798
6.482561536,1.0005105934370455,-167.33119051802333
6.48484864,1.0004573798811205,-167.47922004424484
6.487135744,1.0003750621854863,-167.62626691274562
6.489422336,1.000268972066601,-167.77186757263308
6.49170944,1.0001455538599553,-167.91580617634
6.493996544,1.0000127693869043,-168.05782144031343
6.496283648,0.9998790449294083,-168.19790889208343
6.498570752,0.9997528410466685,-168.33603343831
6.500857856,0.9996422469367207,-168.4724298975069
6.503144448,0.9995541464206802,-168.60732053130405
6.505431552,0.9994941184495448,-168.74111865474526
6.507718656,0.9994661412880661,-168.87420816587277
6.51000576,0.9994719265012223,-169.0071390999654
6.512292864,0.9995111505453127,-169.14037026281693
6.514579968,0.9995812201423192,-169.27433592659838
6.51686656,0.9996778133142649,-169.40952173371437
6.519153664,0.999794766264545,-169.5461657303611
6.521440768,0.9999246083182596,-169.6846477479698
6.523727872,1.0000591830858403,-169.8249733392946
6.526014976,1.0001898465297256,-169.96719443488848
6.52830208,1.0003085020566118,-170.11119219888272
6.530588672,1.0004074939628758,-170.2567602137247
6.532875776,1.0004804781931205,-170.4035480253995
6.53516288,1.000522964214687,-170.55109083225386
6.537449984,1.000532203882301,-170.69904852457069
6.539737088,1.0005076614749084,-170.84681074204386
6.542024192,1.0004507269199832,-170.9939690727737
6.544310784,1.0003650890653817,-171.14008432717645
6.546597888,1.000256295214169,-171.2847119824882
6.548884992,1.00013105210939,-171.42762089648238
6.551172096,0.9999972920826483,-171.56864603268366
6.5534592,0.9998636388599423,-171.70764344583222
6.555746304,0.9997384610450073,-171.844750446336
6.558033408,0.9996297516649215,-171.9801164051563
6.56032,0.9995443612976206,-172.11404709264585
6.562607104,0.9994877932830707,-172.2468770202129
6.564894208,0.9994635239450655,-172.37913488864183
6.567181312,0.9994732761856007,-172.51120632752674
6.569468416,0.9995163244363868,-172.6436306090587
6.57175552,0.9995900197240111,-172.77690594822732
6.574042112,0.9996896005558803,-172.91135297310717
6.576329216,0.9998086541670429,-173.0474190259569
6.57861632,0.9999399523972937,-173.18523416858315
6.580903424,1.0000748999190474,-173.3249676428778
6.583190528,1.0002050270351768,-173.46659681956928
6.585477632,1.0003221332861467,-173.60996613758044
6.587764224,1.000418643151242,-173.75486767521036
6.590051328,1.0004885707937752,-173.9009665539785
6.592338432,1.0005274053502342,-174.04781349074528
6.594625536,1.0005327601777634,-174.19493508257767
6.59691264,1.0005041950182165,-174.34182725702678
6.599199744,1.000443638878209,-174.48812492225966
6.601486336,1.0003546872039981,-174.63320825600525
6.60377344,1.0002432934886247,-174.77685871144692
6.606060544,1.0001161664986304,-174.91872860822446
6.608347648,0.9999815962628797,-175.0586481442637
6.610634752,0.99984809847775,-175.19663791164027
6.612921856,0.999724096051256,-175.332657560214
6.615208448,0.9996174270553608,-175.46699621846142
6.617495552,0.9995349263779786,-175.59992236687114
6.619782656,0.9994817892841511,-175.73180222141937
6.62206976,0.9994613780031284,-175.86312694395158
6.624356864,0.9994750838503981,-175.99435299886954
6.626643968,0.9995220283163941,-176.1259985111418
6.628931072,0.9995992918139236,-176.25850761171088
6.631217664,0.9997018354480277,-176.3923100934301
6.633504768,0.9998231281618656,-176.52768017806085
6.635791872,0.9999556828743899,-176.66488472445837
6.638078976,1.0000909647291034,-176.80397143309406
6.64036608,1.0002203380360475,-176.944985543995
6.642653184,1.0003357000629127,-177.08772601910883
6.644939776,1.000429654741732,-177.2319699393311
6.64722688,1.0004963951933212,-177.377330474463
6.649513984,1.0005315130993737,-177.52337882720803
6.651801088,1.0005328355261016,-177.6697093646692
6.654088192,1.0005002552310165,-177.81575107943075
6.656375296,1.0004358680891152,-177.96106104774415
6.658661888,1.0003437893025304,-178.1051749623411
6.660948992,1.0002296558692114,-178.24774952669517
6.663236096,1.000100948285346,-178.38857092137116
6.6655232,0.9999656417506245,-178.52743629116168
6.667810304,0.9998324049708256,-178.6642608680328
6.670097408,0.9997096785879855,-178.79922340325746
6.672384,0.9996051593496444,-178.93250355574853
6.674671104,0.9995255257980322,-179.06440720214312
6.676958208,0.9994760540259605,-179.19533293744158
6.679245312,0.9994596927429453,-179.32571822983013
6.681532416,0.9994774797270563,-179.4560880713954
6.68381952,0.9995283353987179,-179.58693797922336
6.686106112,0.9996090587018439,-179.7187198471524
6.688393216,0.9997145602534735,-179.8517884480346
6.69068032,0.9998379627492594,-179.98649400881135
6.692967424,0.9999717881605764,179.87695927414944
6.695254528,1.0001070974402757,179.73846991586638
6.697541632,1.0002356056474984,179.59811586762152
6.699828224,1.000349187133576,179.45602892595358
6.702115328,1.0004404922899324,179.31251973423275
6.704402432,1.0005037894909474,179.16788860081985
6.706689536,1.000535151360915,179.02260363263437
6.70897664,1.000532351747867,178.87714200571838
6.711263744,1.0004958019887351,178.732029426757
6.713550848,1.0004276519521635,178.58768941902645
6.71583744,1.0003322215136974,178.44458986539502
6.718124544,1.0002156765828636,178.3030482897195
6.720411648,1.00008522872421,178.16333943053314
6.722698752,0.9999493265788396,178.02559437910884
6.724985856,0.9998164645983337,177.8898480964873
6.72727296,0.9996951220892686,177.7559844454493
6.729559552,0.999592969565805,177.62380385452045
6.731846656,0.9995165178441505,177.49295671222654
6.73413376,0.999470727790041,177.36301877838858
6.736420864,0.9994583093240014,177.23355940300527
6.738707968,0.9994802435516634,177.1040225638631
6.740995072,0.9995351644938703,176.97403466309407
6.743281664,0.9996192781120539,176.84301586425346
6.745568768,0.9997276946347495,176.71061877901988
6.747855872,0.9998533440767224,176.57657909849647
6.750142976,0.9999879931108959,176.44069803723733
6.75243008,1.0001235690051944,176.302874343346
6.754717184,1.0002510178961916,176.16319483220965
6.757003776,1.0003625856395477,176.0217931546992
6.75929088,1.000451084869819,175.87894917970647
6.761577984,1.0005108826816738,175.73508549327036
6.763865088,1.0005382696405511,175.59064746090453
6.766152192,1.0005313448234854,175.44605373177808
6.768439296,1.000490617619989,175.30186533812576
6.770725888,1.0004188645540284,175.15849933221358
6.773012992,1.000320182894087,175.01644112571188
6.775300096,1.0002010938554904,174.87599120444463
6.7775872,1.00006928140949,174.73740692602016
6.779874304,0.9999327132486397,174.60078949765074
6.782161408,0.9998003994704162,174.46618663435464
6.784448512,0.9996806313070994,174.3334409395483
6.786735104,0.999580978508431,174.2023494348867
6.789022208,0.9995077518519604,174.07253431242924
6.791309312,0.9994657310181787,173.94360723050832
6.793596416,0.99945750544635,173.81507360119133
6.79588352,0.99948354468862,173.6864295692638
6.798170624,0.9995423775721987,173.5572229688305
6.800457216,0.9996302359354179,173.42698584426802
6.80274432,0.999741395055073,173.29533248724996
6.805031424,0.9998688877959547,173.16201130058565
6.807318528,1.0000046253411234,173.02677884660258
6.809605632,1.0001399538281157,172.8896119910791
6.811892736,1.0002664548742577,172.75056967136373
6.814179328,1.0003759506350516,172.60986229260126
6.816466432,1.0004615224906752,172.46778648666825
6.818753536,1.0005177962371452,172.32467273754972
6.82104064,1.0005409591994399,172.18105121914567
6.823327744,1.0005298157537796,172.03737490132858
6.825614848,1.0004850519379156,171.89413012696002
6.82790144,1.0004093535950367,171.75181245952407
6.830188544,1.0003075415930716,171.61080519934262
6.832475648,1.000186109896378,171.471475156725
6.834762752,1.0000527783272604,171.33400406772924
6.837049856,0.9999158666760993,171.19854664304552
6.83933696,0.9997842807058824,171.0650845416754
6.841623552,0.9996661479589076,170.9334958425738
6.843910656,0.9995691070053915,170.80348066049802
6.84619776,0.9994993562946233,170.67471496612052
6.848484864,0.9994612143522525,170.5467942826313
6.850771968,0.999457145261441,170.41920834819723
6.853059072,0.9994875678912072,170.29147143230747
6.855345664,0.9995503629338357,170.16306256618594
6.857632768,0.9996415691490609,170.03361396909517
6.859919872,0.9997555744858749,169.90268311578288
6.862206976,0.9998849519710719,169.7700205655865
6.86449408,1.0000215593579014,169.63547807249003
6.866781184,1.0001567667140145,169.49896885810725
6.869068288,1.0002819866406423,169.3606344435289
6.87135488,1.0003891465840802,169.22061461273697
6.873641984,1.000471713252198,169.07926583144808
6.875929088,1.000524047784549,168.93696335814175
6.878216192,1.0005432765693631,168.7942093352594
6.880503296,1.0005279292403062,168.6514254700264
6.8827904,1.0004788578337238,168.50917980777254
6.885076992,1.0003993619077458,168.36787416275706
6.887364096,1.0002944380323455,168.22796237014268
6.8896512,1.000170750469197,168.08972539669466
6.891938304,1.0000361346939484,167.95341601867503
6.894225408,0.9998989368588209,167.81914556274822
6.896512512,0.9997679946419267,167.68681696954897
6.898799104,0.9996517939694254,167.5563707566844
6.901086208,0.999557596346284,167.42745766026619
6.903373312,0.9994912559528939,167.29974712456976
6.905660416,0.9994571573318065,167.1728485346059
6.90794752,0.9994573884114456,167.04621424067878
6.910234624,0.9994920868628894,166.9193318630696
