freq,mag,phase
6.0,1.0003280941608939,28.04551513071127
6.006552064,1.000433844627898,27.872393852735414
6.013104128,1.0005151530629137,27.69793959037352
6.019656192,1.000567399306799,27.52260399000283
6.026208256,1.0005874830312445,27.34673920661523
6.032759808,1.0005743656583688,27.170799044013602
6.039311872,1.0005286926626795,26.99531665460589
6.045863936,1.0004531877197906,26.820590123635938
6.052416,1.000351886749988,26.647099711995367
6.058968064,1.0002307141462177,26.475151936551818
6.065520128,1.0000965427438355,26.304897699237603
6.072072192,0.9999569788130582,26.1365665359655
6.078624256,0.9998197758931935,25.970142987399303
6.08517632,0.9996930073586013,25.80552847339156
6.091727872,0.9995837033508725,25.64248659815006
6.098279936,0.9994982215253526,25.48083351851684
6.104832,0.9994413628853934,25.3201320890387
6.111384064,0.9994164234404105,25.159962626571602
6.117936128,0.9994247913052143,24.99994560472657
6.124488192,0.9994660826599441,24.839538663286866
6.131040256,0.9995378753649633,24.678406266343227
6.13759232,0.9996362006979126,24.516041563733623
6.144144384,0.9997553192860715,24.35216217371191
6.150695936,0.9998886505269358,24.186584034770213
6.157248,1.0000284077267558,24.01910962192847
6.163800064,1.0001668713933316,23.849750405661972
6.170352128,1.0002959375834242,23.678496136530967
6.176904192,1.0004083996771493,23.505576660147753
6.183456256,1.000497809897322,23.331280245835472
6.19000832,1.0005591156951148,23.155928892602816
6.196560384,1.000588833328723,22.97993070396217
6.203112448,1.0005852402361908,22.803766873916203
6.209664,1.0005484756330105,22.627859240309117
6.216216064,1.0004806391245142,22.452655093730474
6.222768128,1.0003856170090772,22.278542620848693
6.229320192,1.000268654826919,22.105953193667794
6.235872256,1.0001365219589389,21.935012604481848
6.24242432,0.9999967477843084,21.765918204450166
6.248976384,0.999857161228043,21.598773229709067
6.255528448,0.999725717613998,21.433483074648038
6.262080512,0.9996099866856519,21.269879498792818
6.268632064,0.9995164645874567,21.10771013094162
6.275184128,0.9994506190243789,20.946669860289745
6.281736192,0.9994160660618473,20.786273772672423
6.288288256,0.9994148184994125,20.626148829680144
6.29484032,0.9994470562443931,20.4657670971733
6.301392384,0.9995109080637895,20.304739487389558
6.307944448,0.9996027667206623,20.142650357031897
6.314496512,0.9997173575663134,19.979105791222285
6.321048576,0.9998481804254679,19.813873698787923
6.327600128,0.9999879253621394,19.64676271272171
6.334152192,1.0001285305503769,19.47774495469653
6.340704256,1.0002619426435522,19.306817832294225
6.34725632,1.0003806635262302,19.134126558892824
6.353808384,1.0004779340476386,18.95994917598341
6.360360448,1.0005483069692207,18.784672564200758
6.366912512,1.000587557465085,18.608580421734263
6.373464576,1.0005935193620163,18.432209541395416
6.380016128,1.0005660506535892,18.255889259306617
6.386568192,1.000506375934024,18.08023429127958
6.393120256,1.0004179937635833,17.905543248187723
6.39967232,1.0003060131435506,17.732260633256374
6.406224384,1.0001766250298623,17.560595137619213
6.412776448,1.0000372528120545,17.390810540092
6.419328512,0.9998957711132098,17.222934646261354
6.425880576,0.9997603151303474,17.056956781602043
6.43243264,0.9996385657657614,16.892726203458704
6.438984192,0.9995372632595297,16.730030066079202
6.445536256,0.9994625249281306,16.568590926274684
6.45208832,0.9994183577964817,16.40791877050987
6.458640384,0.9994074907979125,16.247609479989126
6.465192448,0.9994303660740971,16.087233964431473
6.471744512,0.999485734722167,15.92631790578684
6.478296576,0.9995707054411477,15.76441092492103
6.48484864,0.9996800429559876,15.60117096327178
6.491400704,0.9998079450992755,15.436300139424972
6.497952256,0.9999468828146717,15.269562199322904
6.50450432,1.0000890091355363,15.100912777870455
6.511056384,1.0002262714485168,14.930294955639015
6.517608448,1.0003508221248438,14.75791520766274
6.524160512,1.0004557092730388,14.583909187445727
6.530712576,1.0005347467556505,14.408638888879445
6.53726464,1.0005836075181298,14.232495952833425
6.543816704,1.000599412576242,14.055910006068045
6.550368768,1.000581342347998,13.879323684366595
6.55692032,1.0005302652969188,13.703180435426143
6.563472384,1.000449084723171,13.52795038035118
6.570024448,1.0003425225570248,13.353978115293357
6.576576512,1.000216499607194,13.181638657633993
6.583128576,1.0000781708549975,13.011090896534597
6.58968064,0.9999354770953558,12.842458478574182
6.596232704,0.9997964770080318,12.675766427091935
6.602784768,0.9996689792848833,12.510886553485909
6.609336832,0.9995604963411625,12.347674484862203
6.615888384,0.9994769959390529,12.18573397842633
6.622440448,0.9994232965732779,12.024767801669029
6.628992512,0.9994026393773513,11.864284015038464
6.635544576,0.9994159141203905,11.70383918902744
6.64209664,0.9994625480979631,11.542965043997858
6.648648704,0.9995399389830968,11.381263758919065
6.655200768,0.9996438036263543,11.218301235329344
6.661752832,0.9997678864110552,11.053766665684607
6.668304896,0.9999054802187372,10.887390245002267
6.674856448,1.00004857454862,10.719109953688228
6.681408512,1.0001890653461833,10.548843096229577
6.687960576,1.0003190273375064,10.37675919579756
6.69451264,1.0004310406739625,10.202961868066224
6.701064704,1.0005186687880947,10.027795614562645
6.707616768,1.0005770163127268,9.851613412268222
6.714168832,1.000602727497332,9.674819644180035
6.720720896,1.000594260549705,9.4979293502366
6.72727296,1.0005521147072685,9.32138599984806
6.733824512,1.0004786712597287,9.145607485885881
6.740376576,1.0003781089617203,8.970998279859009
6.74692864,1.0002561054252663,8.797950357616735
6.753480704,1.000119546273563,8.626641630142158
6.760032768,0.9999761110850309,8.457249732163254
6.766584832,0.9998341641770603,8.289837887709355
6.773136896,0.9997016431019196,8.124307673888783
6.77968896,0.9995862061004068,7.96046655781707
6.786241024,0.9994942207854961,7.798047679021194
6.792792576,0.9994311361713623,7.63668010845887
6.79934464,0.9994003905549026,7.475951609923824
6.805896704,0.9994039834698878,7.315416708888511
6.812448768,0.9994415124787567,7.154618550705402
6.819000832,0.9995109491278582,6.993055404127439
6.825552896,0.9996084812525007,6.8303281670702205
6.83210496,0.9997283141602771,6.666112153866975
6.838657024,0.9998637930103211,6.500125198721328
6.845209088,1.000007230108434,6.3321974563147565
6.85176064,1.0001504447196317,6.162285269272965
6.858312704,1.0002852489971144,5.990491831847849
6.864864768,1.0004039454529638,5.816930822358328
6.871416832,1.000499961408387,5.641853852877092
6.877968896,1.0005677141239426,5.465701127898791
6.88452096,1.0006032637278908,5.288798193558774
6.891073024,1.000604670003112,5.111605563022327
6.897625088,1.0005717910293004,4.9346516357045
6.904177152,1.00050658225824,4.758382714275788
6.910728704,1.0004124738389997,4.58313118260341
6.917280768,1.0002951179437192,4.409382097610798
6.923832832,1.0001608817392171,4.237332983326007
6.930384896,1.0000175604478532,4.067165583344444
6.93693696,0.9998732926201517,3.898984052348685
6.943489024,0.9997362022221569,3.732744161038827
6.950041088,0.9996140899166369,3.5682632603737736
6.956593152,0.999513988960139,3.405333738761329
6.963145216,0.9994416031174252,3.243570541346578
6.969696768,0.9994010292194829,3.08257717760318
6.976248832,0.9993945870097916,2.9218850859247905
6.982800896,0.9994227061086733,2.7610811586554593
6.98935296,0.9994837773168305,2.5996356563928766
6.995905024,0.9995744217697746,2.43714335730723
7.002457088,0.9996893142272836,2.2731959788239995
7.009009152,0.9998221402374009,2.1075674344147846
7.015561216,0.9999652027108942,1.9400266323139006
7.022112768,1.000110488945383,1.770541542463177
7.028664832,1.0002496098238185,1.599014246772791
7.035216896,1.0003747827462668,1.4257198468995487
7.04176896,1.0004787151751084,1.2507936234311656
7.048321024,1.0005556663120505,1.0746346875993888
7.054873088,1.0006011822685168,0.8976408256431186
7.061425152,1.0006126355553893,0.7202305729061981
7.067977216,1.0005893422684873,0.5428745636670507
7.07452928,1.0005326639521608,0.36607324387219453
7.081080832,1.0004457557322692,0.19025949246724513
7.087632896,1.0003334663902839,0.015794263232707637
7.09418496,1.0002024765477278,-0.15699261723080246
7.100737024,1.0000597706808725,-0.3279157675804979
7.107289088,0.9999136839076572,-0.49689313978587524
7.113841152,0.9997726607183695,-0.6638584544685131
7.120393216,0.9996443611776151,-0.8289782335579221
7.12694528,0.9995363941459386,-0.9925166077006152
7.133497344,0.9994548713510061,-1.1547248354120403
7.140048896,0.999404360549543,-1.3160326020761766
7.14660096,0.9993878548336016,-1.4768850534159257
7.153153024,0.9994061929587718,-1.6377708452835529
7.159705088,0.999458550467999,-1.79912118473715
7.166257152,0.9995417736547548,-1.9614170479864577
7.172809216,0.9996511465104413,-2.1250652112106767
7.17936128,0.9997805779068045,-2.290350347274079
7.185913344,0.9999227461964685,-2.457509348441213
7.192465408,1.0000693609950768,-2.626700793395126
7.19901696,1.0002123071726483,-2.7978309486425323
7.205569024,1.0003432219269086,-2.9708849264261983
7.212121088,1.000454887362449,-3.1456158478717207
7.218673152,1.0005407907596262,-3.3217028346729194
7.225225216,1.000596221503778,-3.4987916178600553
7.23177728,1.000617845898833,-3.67638989645733
7.238329344,1.0006044150017679,-3.8540944447648284
7.244881408,1.0005567051260391,-4.031376194597751
7.251433472,1.0004775227746825,-4.207794537168202
7.257985024,1.0003710900492988,-4.382919640872491
7.264537088,1.0002436206094696,-4.556483892327466
7.271089152,1.0001023882067361,-4.728201102690537
7.277641216,0.999955283116414,-4.897910902596982
7.28419328,0.9998106656080957,-5.06565476785414
7.290745344,0.9996767537897995,-5.23152202693545
7.297297408,0.9995613704388366,-5.395597986567878
7.303849472,0.9994708778845067,-5.5583252266952705
7.310401536,0.9994105751280405,-5.719996253067337
7.316953088,0.9993838696029171,-5.8810814784454735
7.323505152,0.9993922527848699,-6.042031813238689
7.330057216,0.9994353481402461,-6.203371284222595
7.33660928,0.9995106381971738,-6.365487101542526
7.343161344,0.9996139330239753,-6.528852435237597
7.349713408,0.9997393773517256,-6.693814964144483
7.356265472,0.9998797645381633,-6.860619188655346
7.362817536,1.0000272650636977,-7.0293950843800195
7.3693696,1.0001732202678901,-7.200241881567814
7.375921152,1.0003096336601083,-7.372988074647656
7.382473216,1.0004285771278727,-7.547511537770485
7.38902528,1.0005232404648536,-7.723517494595183
7.395577344,1.0005884201250028,-7.9006350712952305
7.402129408,1.000620275217583,-8.078423696188688
7.408681472,1.0006169942960899,-8.256381589263949
7.415233536,1.0005787017527166,-8.434170416846527
7.4217856,1.000507596655693,-8.611124947347593
7.428337664,1.0004076359118366,-8.786925661618467
7.434889216,1.0002846049664949,-8.961237942327468
7.44144128,1.000145263548926,-9.133729510129603
7.447993344,0.9999978390482084,-9.304262245888127
7.454545408,0.9998503540430712,-9.472796841726154
7.461097472,0.9997113808534225,-9.639353187208878
7.467649536,0.9995889677782133,-9.804110185331439
7.4742016,0.9994897154271584,-9.967368432183555
7.480753664,0.9994197031659127,-10.129431284559026
7.487305728,0.999382627680531,-10.290782716505712
7.49385728,0.9993808418924821,-10.451871075512583
7.500409344,0.9994142682406196,-10.613188562012958
7.506961408,0.9994813076676726,-10.775196303591565
7.513513472,0.9995778482444164,-10.93832159614886
7.520065536,0.9996985809263182,-11.102973737235446
7.5266176,0.9998365713387624,-11.2694227423067
7.533169664,0.9999841996892492,-11.437818319155854
7.539721728,1.0001327866251435,-11.608264434658654
7.546273792,1.000273978564108,-11.780719159803493
7.552825344,1.0003998110012666,-11.955038801770016
7.559377408,1.0005031508391806,-12.130908265693101
7.565929472,1.0005779036461633,-12.30803555263565
7.572481536,1.0006200417828606,-12.485957809767312
7.5790336,1.0006270922482525,-12.664232559204288
7.585585664,1.0005984917078325,-12.842386047588217
7.592137728,1.0005359528199198,-13.019913378306954
7.598689792,1.0004431234990285,-13.196404332959316
7.605241856,1.0003249779400065,-13.37143263396037
7.611793408,1.0001884438981459,-13.544718959757452
7.618345472,1.0000411660649042,-13.716074253236675
7.624897536,0.9998915608946713,-13.885391795388568
7.6314496,0.9997480338009009,-14.052701438916333
7.638001664,0.9996188115661145,-14.21815168205108
7.644553728,0.9995113950502283,-14.381949750138693
7.651105792,0.9994316086174129,-14.544502896738052
7.657657856,0.999384258751518,-14.706149267823397
7.66420992,0.9993720475771584,-14.867420680207323
7.670761472,0.9993957384579499,-15.028766432294729
7.677313536,0.9994537971308124,-15.190691913875156
7.6838656,0.9995430833069159,-15.353591995982935
7.690417664,0.9996585191677378,-15.517957479524446
7.696969728,0.9997935694661296,-15.684014485585633
7.703521792,0.9999404042841188,-15.85204703771515
7.710073856,1.000090965201327,-16.022150008851657
7.71662592,1.0002363555936147,-16.19427807794328
7.723177472,1.0003686646220118,-16.36833106434033
7.729729536,1.0004802114099212,-16.544046565043836
7.7362816,1.0005645028392598,-16.72115554030055
7.742833664,1.0006169241245688,-16.89920690797427
7.749385728,1.0006344100641529,-17.077734974390633
7.755937792,1.0006159214026313,-17.25625467604038
7.762489856,1.0005624524521903,-17.434307615942704
7.76904192,1.0004771755809616,-17.611439649376855
7.775593984,1.000364705590725,-17.787212334372967
7.782145536,1.0002316296639093,-17.961294108778574
7.7886976,1.00008518976502,-18.133464127789818
7.795249664,0.999933869540302,-18.30362107890899
7.801801728,0.9997865496556291,-18.471707292849068
7.808353792,0.999651153043269,-18.637850411631312
7.814905856,0.9995355770958,-18.802269600433018
7.82145792,0.9994464955035478,-18.96530341176535
7.828009984,0.9993888891754339,-19.12732857532608
7.834562048,0.99936610547393,-19.288811048378715
7.8411136,0.9993795122726699,-19.450216856046538
7.847665664,0.9994283164516983,-19.612086198339078
7.854217728,0.9995097333457251,-19.774826789321462
7.860769792,0.9996191556991098,-19.93892749194479
7.867321856,0.9997504079015144,-20.104638360665792
7.87387392,0.9998960774405725,-20.27229883898784
7.880425984,1.0000478369461667,-20.441993525842364
7.886978048,1.0001970564692586,-20.613792251316884
7.893530112,1.0003352645898245,-20.787570615611266
7.900081664,1.0004546091241355,-20.96312502602478
7.906633728,1.0005482270253703,-21.140145325850085
7.913185792,1.0006108554957127,-21.318289431995687
7.919737856,1.0006389147423755,-21.497009206327277
7.92628992,1.000630911854912,-21.675920293258198
7.932841984,1.000586826131346,-21.85447685050015
7.939394048,1.000509696048401,-22.032182596898725
7.945946112,1.0004034984179635,-22.20868575213853
7.952498176,1.0002744109020023,-22.38355361528875
7.959049728,1.0001296471678007,-22.556584343775793
7.965601792,0.9999776227132908,-22.727581606706313
7.972153856,0.9998268644380773,-22.896459863702407
7.97870592,0.9996857821583874,-23.06334921175176
7.985257984,0.9995626403509249,-23.228428686212837
7.991810048,0.9994642987940269,-23.391999041601583
7.998362112,0.9993964174444107,-23.554438667995818
8.004914176,0.9993631032118755,-23.716156111946486
8.01146624,0.9993657998984714,-23.877716796445483
8.018017792,0.999404952844228,-24.03951721828681
8.024569856,0.9994780989539619,-24.202139117783755
8.03112192,0.9995808423246576,-24.36598060096489
8.037673984,0.9997077625945975,-24.531377396319957
8.044226048,0.9998513872889537,-24.69867368515132
8.050778112,1.0000037542304823,-24.867994284393504
8.057330176,1.000155959250334,-25.03943878025252
8.06388224,1.0002996686995707,-25.212922704836277
8.070434304,1.0004263043370334,-25.388268082579717
8.076985856,1.000529091610634,-25.56517538739305
8.08353792,1.0006019337675385,-25.74332040908126
8.090089984,1.0006405914049683,-25.922275030299318
8.096642048,1.0006430946585672,-26.10148738024318
8.103194112,1.0006090462592518,-26.28053432699496
8.109746176,1.0005405710768966,-26.458857406812893
8.11629824,1.0004413003367012,-26.636067241981316
8.122850304,1.0003170024739216,-26.81172820676412
8.129402368,1.0001746547388335,-26.98557671744115
8.13595392,1.0000223997090045,-27.157382884803344
8.142505984,0.9998688468299971,-27.327109039002032
8.149058048,0.9997225466473749,-27.494801675621403
8.155610112,0.9995921852682523,-27.66058849420453
8.162162176,0.9994849709515379,-27.824727943358884
8.16871424,0.9994070555090884,-27.987616178310457
8.175266304,0.9993628913377671,-28.14965759917847
8.181818368,0.9993550310152104,-28.311338409256717
8.188370432,0.9993839107728212,-28.473188749115124
8.194921984,0.9994481032237351,-28.635681308644727
8.201474048,0.9995437943719075,-28.799307265447837
8.208026112,0.9996655267423394,-28.964400512465783
8.214578176,0.9998064692090448,-29.131311094094045
8.22113024,0.9999585159181376,-29.300262406015587
8.227682304,1.0001134393759683,-29.47133376648167
8.234234368,1.0002618681255615,-29.64452042617761
8.240786432,1.0003956492207338,-29.81960930685199
8.247338496,1.0005070634639086,-29.996426950225832
8.253890048,1.0005899023866864,-30.17458452204534
8.260442112,1.0006393530385795,-30.35366034530928
8.266994176,1.0006526694521714,-30.533177491818012
8.27354624,1.0006289439258085,-30.71263478155452
8.280098304,1.000569466975241,-30.891540059343942
8.286650368,1.0004778328623314,-31.06942438521259
8.293202432,1.0003588970581099,-31.245872303831966
8.299754496,1.0002196854700758,-31.42054541045402
8.30630656,1.000067979993081,-31.593255175144726
8.312858112,0.9999122875900455,-31.763832475321465
8.319410176,0.9997615401179231,-31.9322990975244
8.32596224,0.9996243160362872,-32.09883698446594
8.332514304,0.9995085185155217,-32.26359585681333
8.339066368,0.9994205857449828,-32.42700573267565
8.345618432,0.9993658204840463,-32.58939560975265
8.352170496,0.9993469581222449,-32.7512859419377
8.35872256,0.9993654639677433,-32.913205836950695
8.365274112,0.9994201794997408,-33.07560591149803
8.371826176,0.999507939998108,-33.239040655844825
8.37837824,0.9996240106043399,-33.40383933259321
8.384930304,0.9997614908603027,-33.57041899422172
8.391482368,0.9999126729494988,-33.738976436468
8.398034432,1.000069263152869,-33.90967190051759
8.404586496,1.000221992211892,-34.08248787081976
8.41113856,1.0003623915980437,-34.25735326529701
8.417690624,1.000482237538679,-34.43401932820697
8.424242176,1.000574890918933,-34.61212085791049
8.43079424,1.0006351659917228,-34.79132835970308
8.437346304,1.0006593542529283,-34.97109196548634
8.443898368,1.0006462383092596,-35.15097645688757
8.450450432,1.0005965129536107,-35.33043252662111
8.457002496,1.0005128909947727,-35.50898210551711
8.46355456,1.0004001571610268,-35.6861897743323
8.470106624,1.0002647146972234,-35.86170540860731
8.476658688,1.0001142029728731,-36.03527129531655
8.48321024,0.9999571652878,-36.20672775845538
8.489762304,0.9998024980780844,-36.37605396564007
8.496314368,0.9996590036461604,-36.54332469833029
8.502866432,0.999534899989853,-36.708762530847316
8.509418496,0.99943721417436,-36.87274060451676
8.51597056,0.9993717335123171,-37.03550491858679
8.522522624,0.9993417734113815,-37.19769516863464
8.529074688,0.9993494776827588,-37.3597050133057
8.535626752,0.9993943420266638,-37.52205974964733
8.542178304,0.99947378753747,-37.68529073225514
8.548730368,0.9995832579566144,-37.84985482866105
8.555282432,0.9997167071820549,-38.016078717709554
8.561834496,0.9998662640504382,-38.18426517245054
8.56838656,1.000023980573752,-38.35456297276661
8.574938624,1.00018022639887,-38.52702997145101
8.581490688,1.0003265038611646,-38.70161390464193
8.588042752,1.0004545588095006,-38.8781124253654
8.594594816,1.000556940350064,-39.05614517754756
8.601146368,1.0006278179225236,-39.235429911813085
8.607698944,1.0006630798060576,-39.41541524046237
8.614250496,1.0006609190801168,-39.5956728785714
8.620803072,1.000621219548919,-39.775664165624356
8.627354624,1.0005463771886112,-39.95484437293142
