freq,mag,phase
6.0,0.9995141099113171,122.14921692526296
6.002286592,0.9995453039548086,121.9913446457204
6.004572672,0.9996078660372406,121.83279002016857
6.006859264,0.9996952106578435,121.67319316190738
6.009145344,0.9998016164581774,121.5122184967752
6.011431936,0.9999208888230889,121.34961392176648
6.013718016,1.0000450586742138,121.18530663135653
6.016004608,1.0001664099379977,121.0192145047277
6.018290688,1.0002773824791327,120.85145636867043
6.02057728,1.0003708761005068,120.6822524458814
6.022863872,1.0004408207792883,120.51188858576222
6.025149952,1.0004828793266856,120.34074038216644
6.027436544,1.0004943637342316,120.16922137001599
6.029722624,1.000474474211407,119.99776841041297
6.032009216,1.0004245225149502,119.8268733062827
6.034295296,1.0003475900638898,119.65690692196705
6.036581888,1.0002485720999423,119.48825377162919
6.03886848,1.0001335022729236,119.32114731867838
6.04115456,1.0000098500794656,119.15584447751596
6.043441152,0.9998852746684399,118.99233623203847
6.045727232,0.999767811664271,118.83063620253644
6.048013824,0.999664755505025,118.67054313814185
6.050299904,0.9995827062219013,118.51183273777197
6.052586496,0.9995270159359183,118.35416169518705
6.054872576,0.9995010338165121,118.19712755693624
6.057159168,0.9995065545526771,118.04025583998225
6.05944576,0.9995431283609626,117.883097655265
6.06173184,0.9996087656672509,117.72523944524359
6.064018432,0.9996990951431746,117.56627670398024
6.066304512,0.999808491375039,117.40589978565181
6.068591104,0.9999300449088775,117.24385464646313
6.070877184,1.000056047493192,117.08005750586909
6.073163776,1.0001785637164058,116.91447462830757
6.075450368,1.0002897844764713,116.74723945718175
6.077736448,1.000382742646301,116.57852576430733
6.08002304,1.0004515759708739,116.40865668778784
6.08230912,1.000491733805015,116.23803393086696
6.084595712,1.0005008067171617,116.06705997786185
6.086881792,1.000478147217561,115.89622835076389
6.089168384,1.0004251570851384,115.72594997509749
6.091454464,1.000344984083516,115.55665859277418
6.093741056,1.0002430063745968,115.38871216508295
6.096027648,1.0001253117171718,115.22238355706646
6.098313728,0.9999995477174001,115.05788983132145
6.10060032,0.9998735104344233,114.89518474951734
6.1028864,0.9997553020118922,114.73432102231602
6.105172992,0.9996522793564279,114.57509986306931
6.107459072,0.9995712449165606,114.41721874122274
6.109745664,0.999517052034635,114.26037307362597
6.112032256,0.9994933184952756,114.10410348550437
6.114318336,0.9995014755184971,113.94797890870602
6.116604928,0.9995412340670843,113.79157180266515
6.118891008,0.9996100072843898,113.63435577558454
6.1211776,0.9997033131654818,113.47601107466245
6.12346368,0.999815563023744,113.31619777500286
6.125750272,0.9999394901050999,113.15471204318446
6.128036352,1.0000673075429585,112.99140930118135
6.130322944,1.0001908239144055,112.82630051893392
6.132609536,1.0003024235990159,112.65951429262121
6.134895616,1.000394823078752,112.49128554324696
6.137182208,1.000462370943517,112.32188936674504
6.139468288,1.0005005863858438,112.15178738562359
6.14175488,1.0005072228954714,111.98134905246133
6.14404096,1.0004815611838103,111.81108919148166
6.146327552,1.000425422675341,111.64144176565813
6.148614144,1.0003422005782057,111.47281385977632
6.150900224,1.000237144265747,111.30559012160832
6.153186816,1.0001167578342065,111.14002522363431
6.155472896,0.9999890329408182,110.9762935116559
6.157759488,0.999861625549608,110.81440421898317
6.160045568,0.9997426912309165,110.65437000914551
6.16233216,0.9996398535269554,110.49596125939448
6.16461824,0.9995597563383255,110.33892202577256
6.166904832,0.9995073601849863,110.18285854328887
6.169191424,0.9994858537132228,110.0273585859598
6.171477504,0.999496912086746,109.8719903158241
6.173764096,0.9995398101482962,109.71623966230234
6.176050176,0.9996116999144479,109.55968281202607
6.178336768,0.9997082716144935,109.40193100458549
6.180622848,0.9998233630774397,109.24268048275873
6.18290944,0.9999495654164522,109.08167867391853
6.18519552,1.0000790827060704,108.9188792231606
6.187482112,1.0002036888614538,108.7542303055624
6.189768704,1.0003154366863387,108.58790181252814
6.192054784,1.0004073272776128,108.42008615635952
6.194341376,1.00047342425002,108.25118358492568
6.196627456,1.000509569866672,108.08155339340989
6.198914048,1.000513435707472,107.91166721514907
6.201200128,1.0004847651380786,107.74198028198668
6.20348672,1.0004253322386665,107.57292523255839
6.205773312,1.000338934572055,107.40495717388549
6.208059392,1.0002307921300937,107.23843386287133
6.210345984,1.0001078633155311,107.0736011126388
6.212632064,0.9999779438291202,106.91063000108286
6.214918656,0.9998491156668738,106.74959160113147
6.217204736,0.9997296768923573,106.59034281360687
6.219491328,0.9996271457635716,106.43274523838492
6.221777408,0.9995479069967231,106.27649770433035
6.224064,0.9994973202604601,106.12122300447913
6.226350592,0.9994783701971385,105.96647884025847
6.228636672,0.9994923587654541,105.81180541038592
6.230923264,0.9995383685053252,105.65672757871167
6.233209344,0.9996136379643457,105.50079168482927
6.235495936,0.9997134278029077,105.34360165368201
6.237782016,0.9998313127003184,105.18488173005436
6.240068608,0.9999599304484024,105.02439059048746
6.2423552,1.0000912143714535,104.86201221157293
6.24464128,1.0002168401234417,104.69779201655788
6.246927872,1.0003286219091665,104.53191051121583
6.249213952,1.0004197545765636,104.36455609500356
6.251500544,1.0004843910726182,104.19608184777849
6.253786624,1.0005184335755488,104.02691604911466
6.256073216,1.0005194961227566,103.85753144820215
6.258359296,1.0004876488554992,103.68836517706828
6.260645888,1.000424961709726,103.51992923410086
6.26293248,1.0003352645039203,103.35262590577425
6.26521856,1.0002240974517753,103.18677494688743
6.267505152,1.000098564309402,103.02264880510116
6.269791232,0.9999665144374105,102.86046459067295
6.272077824,0.9998364306694477,102.70016562307927
6.274363904,0.9997164512425305,102.54174993002842
6.276650496,0.9996143133581638,102.38493985054362
6.278937088,0.9995363037946886,102.22949947561814
6.281223168,0.9994874842476633,102.0749536568173
6.28350976,0.9994710352515742,101.92095620173157
6.28579584,0.9994881051209553,101.76697057481867
6.288082432,0.9995374804852887,101.612554530727
6.290368512,0.9996160714114669,101.4571921463708
6.292655104,0.9997189933294516,101.30057219214397
6.294941184,0.9998398041203163,101.14233365222455
6.297227776,0.9999707231097329,100.98228658739578
6.299514368,1.000103735518088,100.82033572174258
6.301800448,1.000230128924452,100.65654905529993
6.30408704,1.0003420452940908,100.4910498528058
6.30637312,1.0004323888903182,100.32408825053447
6.308659712,1.0004953309414475,100.15603969996255
6.310945792,1.0005271056084672,99.9873413148911
6.313232384,1.0005253729662296,99.81842883305949
6.315518464,1.000490475896073,99.6497949872205
6.317805056,1.0004242123479632,99.481949056826
6.320091648,1.0003310567658514,99.31525542654995
6.322377728,1.0002168894560883,99.15007160445506
6.32466432,1.000088721856416,98.98669231090537
6.3269504,0.9999545755568432,98.82523233979543
6.329236992,0.9998232539501855,98.66572803076258
6.331523072,0.9997030588136266,98.50805387767973
6.333809664,0.9996011219895284,98.35202193441258
6.336096256,0.9995244708217748,98.19734359235323
6.338382336,0.9994777452173806,98.04357302029135
6.340668928,0.9994639339547493,97.89027049719702
6.342955008,0.9994839979695305,97.73694465993727
6.3452416,0.9995367796265929,97.58313630167969
6.34752768,0.9996188608018878,97.42835756791574
6.349814272,0.9997250913589205,97.27224319464909
6.352100352,0.9998488055567804,97.11446820147549
6.354386944,0.9999821110004573,96.954858081813
6.356673536,1.0001166800893944,96.79332349804217
6.358959616,1.0002438701834349,96.62989959033162
6.361246208,1.000355786214825,96.46478303156779
6.363532288,1.0004451340507277,96.29821588427154
6.36581888,1.0005064601362972,96.13057872471562
6.36810496,1.0005356952216513,95.96229385262184
6.370391552,1.0005309588310811,95.79384797262745
6.372678144,1.0004926957470044,95.62574446356619
6.374964224,1.0004230644434409,95.45842870753889
6.377250816,1.0003265956823593,95.29231713872697
6.379536896,1.0002091627122316,95.12782395010478
6.381823488,1.0000783671039613,94.96514140506255
6.384109568,0.9999424049888336,94.80440789498685
6.38639616,0.9998098453683342,94.64562583095469
6.38868224,0.9996890554068018,94.48874111103564
6.390968832,0.9995878033100111,94.33351263979202
6.393255424,0.9995125561736778,94.17953575737762
6.395541504,0.999467920148853,94.02648460052141
6.397828096,0.9994568771261255,93.87387211676099
6.400114176,0.9994802771982898,93.72120073190837
6.402400768,0.9995365308511401,93.56795019060677
6.404686848,0.9996221156040906,93.4137127218042
6.40697344,0.9997316239341466,93.25808506223638
6.409260032,0.999858262762198,93.10075311227062
6.411546112,0.9999939323797601,92.94153447257048
6.413832704,1.0001299777053096,92.78038483933899
6.416118784,1.0002579909646383,92.617323968862
6.418405376,1.0003697594413714,92.45254744688624
6.420691456,1.0004582228300847,92.28632482075258
6.422978048,1.0005176061930685,92.119053506318
6.425264128,1.0005443698416194,91.95121033041411
6.42755072,1.0005366232804829,91.78319349251952
6.429837312,1.000494852920831,91.61555198198819
6.432123392,1.0004216218434023,91.44880025323505
6.434409984,1.00032171624741,91.28331219746823
6.436696064,1.0002010272567374,91.1194315945845
6.438982656,1.0000676761420277,90.95741487114213
6.441268736,0.9999296446542758,90.7973961287621
6.443555328,0.9997959350759916,90.63936534824407
6.44584192,0.9996750039242805,90.48321909536787
6.448128,0.9995744203281929,90.32869427741193
6.450414592,0.9995006101075407,90.17545860618495
6.452700672,0.9994582156030393,90.02312831759197
6.454987264,0.9994501706964619,89.87115885408537
6.457273344,0.9994768220044496,89.71909378380464
6.459559936,0.999536525214687,89.56640630066687
6.461846016,0.9996257472285843,89.41268831608522
6.464132608,0.9997385948298818,89.25750653352488
6.4664192,0.9998680828236737,89.10058587439458
6.46870528,1.000006117029799,88.94174819214743
6.470991872,1.00014375695976,88.78094561364102
6.473277952,1.000272394648481,88.61821638757988
6.475564544,1.0003839495020521,88.45373082649519
6.477850624,1.000471106855639,88.2878398038739
6.480137216,1.0005286557886643,88.12094712052539
6.482423296,1.000552740623279,87.95344330249866
6.484709888,1.000541830444894,87.78586388564534
6.48699648,1.0004965097468752,87.61871690514482
6.48928256,1.0004196766591882,87.45246924530325
6.491569152,1.000316316232122,87.28754809122198
6.493855232,1.0001925368165887,87.12429806690737
6.496141824,1.0000564555241631,86.9629529215655
6.498427904,0.9999165712207458,86.80362146235372
6.500714496,0.9997818342770332,86.6463091557287
6.503001088,0.9996605869148373,86.49087229005349
6.505287168,0.9995607612899898,86.33708567955816
6.50757376,0.9994885707315909,86.1845508588317
6.50985984,0.9994486915290899,86.03287334361008
6.512146432,0.9994435775802417,85.88153962570311
6.514432512,0.9994736492617642,85.73006661625267
6.516719104,0.9995370528050723,85.57790752921454
6.519005184,0.999629874756686,85.4246504311604
6.521291776,0.9997461110875951,85.26989285586315
6.523578368,0.9998785735456229,85.11335390223805
6.525864448,1.0000187701490748,84.95485511952187
6.52815104,1.000157996964848,84.79433279690545
6.53043712,1.0002871476800845,84.63190009475159
6.532723712,1.0003984334836469,84.46772373757298
6.535009792,1.0004843832835555,84.30214323154975
6.537296384,1.0005397422892217,84.13555590693302
6.539582976,1.0005610980221726,83.9684174940609
6.541869056,1.0005467654864206,83.80123244872976
6.544155648,1.0004979834828607,83.63455044186527
6.546441728,1.0004174876723853,83.46880684730908
6.54872832,1.0003103750927163,83.30444404046739
6.5510144,1.000183505689788,83.1417696223839
6.553300992,1.0000448579669392,82.98107859273676
6.555587072,0.9999030559255279,82.82240717193835
6.557873664,0.9997673250914149,82.665795249841
6.560160256,0.9996459978028733,82.5110734108385
6.562446336,0.9995470290150404,82.35797111420057
6.564732928,0.9994764802912233,82.20613089305103
6.567019008,0.9994391393683709,82.05508275172053
6.5693056,0.9994370714108043,81.90437617057987
6.57159168,0.9994706874088252,81.75343947355915
6.573878272,0.9995379353900011,81.60178666048964
6.576164864,0.9996343678741948,81.44898270626744
6.578450944,0.999754173186428,81.29461291209869
6.580737536,0.9998894332161484,81.13842042920537
6.583023616,1.0000319145314056,80.98021125762759
6.585310208,1.000172558953406,80.81996508749009
6.587596288,1.0003022212509425,80.65779410205239
6.58988288,1.0004130520541095,80.49389219283806
6.59216896,1.000497669257524,80.32858337883707
6.594455552,1.000550861731114,80.16228738935213
6.596742144,1.0005692306049563,79.99547221650637
6.599028224,1.00055158766906,79.82869814796935
6.601314816,1.0004990904790263,79.66241764727243
6.603600896,1.0004146517426478,79.49714973882269
6.605887488,1.0003040722039274,79.33331687799716
6.608173568,1.0001739869317299,79.17123416021546
6.61046016,1.000032737742064,79.01112977086568
6.612746752,0.9998891721751862,78.85314893005682
6.615032832,0.9997523464565383,78.69720151536048
6.617319424,0.9996312172811049,78.54315111709482
6.619605504,0.9995331199946046,78.3907330556665
6.621892096,0.9994644111953817,78.23953498359415
6.624178176,0.9994296568023832,78.0891098249452
6.626464768,0.9994309529769018,77.93894597592114
6.628750848,0.9994681636938005,77.7885679732329
6.63103744,0.9995391694066559,77.63737202913386
6.633324032,0.999639388261362,77.484976941885
6.635610112,0.9997625187540162,77.33097331194271
6.637896704,0.999900842173108,77.17506355715268
6.640182784,1.0000454704070363,77.01714485014051
6.642469376,1.000187421912543,76.85716774404506
6.644755456,1.000317593653658,76.69519881429295
6.647042048,1.0004277921520741,76.53153312545608
6.649328128,1.00051097888388,76.36646361920566
6.65161472,1.0005618104147531,76.20042760867982
6.653901312,1.0005772778116715,76.0339369641596
6.656187392,1.0005561356738868,75.8674957217131
6.658473984,1.000499652074457,75.70164087523791
6.660760064,1.0004115761319472,75.53682711385731
6.663046656,1.0002972797005663,75.37350054354306
6.665332736,1.0001640097288842,75.21197938245253
6.667619328,1.000020069443952,75.05251924697443
6.66990592,0.9998747835571176,74.89514147636643
6.672192,0.9997371284824377,74.73985561704437
6.674478592,0.9996160484892873,74.58646543372411
6.676764672,0.9995190588091213,74.43467498302388
6.679051264,0.9994524499413728,74.2841133795059
6.681337344,0.9994203608991956,74.13427405006651
6.683623936,0.9994249618221265,73.9846560985065
6.685910016,0.9994660697481886,73.83472814189214
6.688196608,0.999540871163739,73.68398244828792
6.6904832,0.9996448872543923,73.5319619768897
6.69276928,0.9997715671977364,73.378275550888
6.695055872,0.9999126925739159,73.22265873228855
6.697341952,1.0000596156240051,73.06498015372405
6.699628544,1.000202811527475,72.90519070882954
6.701914624,1.000333241672389,72.74344730020042
6.704201216,1.0004428383003172,72.57995797426697
6.706487808,1.00052452070688,72.41510128673659
6.708773888,1.0005728635161937,72.24932182247144
6.71106048,1.0005851852916072,72.08310191654436
6.71334656,1.0005603440975874,71.91699743719658
6.715633152,1.0005000863871982,71.75149979742194
6.717919232,1.0004079899470983,71.5871368175416
6.720205824,1.0002899916569379,71.42429744721235
6.722491904,1.0001534727466022,71.2633306134695
6.724778496,1.000007125173381,71.10444423061328
6.727065088,0.9998600128631118,70.94767952370768
6.729351168,0.9997216707892738,70.79302613923187
6.73163776,0.9996006429224675,70.64027126199753
6.73392384,0.9995048644635537,70.4890978144082
6.736210432,0.9994403538191365,70.33911463535509
6.738496512,0.9994111982543541,70.18985982002735
6.740783104,0.9994192378414003,70.04076153428778
6.743069696,0.9994641453841373,69.89128683444666
6.745355776,0.9995429455940262,69.74092474523522
6.747642368,0.9996508581328192,69.58924984550883
6.749928448,0.99978101433896,69.43586414643522
6.75221504,0.9999250869590275,69.28047310927981
6.75450112,1.0000740515681947,69.12299649071409
6.756787712,1.0002184930794806,68.96339058457094
6.759073792,1.0003492995888466,68.80179877796887
6.761360384,1.00045793848179,68.6384854140487
6.763646976,1.000537882514574,68.47380113496452
6.765933056,1.000583812377302,68.30822195518644
6.768219648,1.000592812881022,68.14227560137962
6.770505728,1.0005643422306185,67.97645495340687
6.77279232,1.0004999716647434,67.81133929856797
6.7750784,1.0004039202015422,67.64738427033507
6.777364992,1.0002822049515139,67.48501038966177
6.779651584,1.0001424853369798,67.324565449124
6.781937664,0.9999936295407506,67.16622033654495
6.784224256,0.9998449246772669,67.01007376215703
6.786510336,0.9997057720745101,66.85599582782736
6.788796928,0.9995851323808785,66.7038470818874
6.791083008,0.9994906855502134,66.55328015885647
6.7933696,0.9994283792927835,66.40388087966605
6.79565568,0.9994022347133273,66.25512620522089
6.797942272,0.9994138765750178,66.10651423019007
6.800228864,0.9994626696383122,65.95746887746706
6.802514944,0.999545592127469,65.80749013809856
6.804801536,0.9996573268433878,65.65611392325019
6.807087616,0.9997910159112663,65.50295465377431
6.809374208,0.9999379264229817,65.3477764380656
6.811660288,1.000089048778998,65.19045184856198
6.81394688,1.0002346612800812,65.03099569284184
6.81623296,1.0003655603882151,64.86953024375397
6.818519552,1.0004734594452043,64.7063535660274
6.820806144,1.0005514553632282,64.54183872153327
6.823092224,1.0005946458339368,64.3764296902014
6.825378816,1.0006002441150021,64.21070558321972
6.827664896,1.0005679571459336,64.04517014925382
6.829951488,1.0004995017327487,63.88038253015047
6.832237568,1.0003994848081061,63.7168092999455
6.83452416,1.0002740447788998,63.55490195237553
6.836810752,1.0001310861703259,63.39494246822174
6.839096832,0.9999796501874916,63.23715901423256
6.841383424,0.9998292959390066,63.08154925739934
6.843669504,0.9996896199189419,62.928075708173196
6.845956096,0.9995693928678966,62.77649380312158
6.848242176,0.9994764247110512,62.62649755427118
6.850528768,0.9994164326156302,62.477622844686515
6.852814848,0.9993933764753647,62.32938219425336
6.85510144,0.9994087508105949,62.181209150414155
6.857388032,0.9994615845998163,62.032560537635305
6.859674112,0.9995486680347402,61.8829044470061
6.861960704,0.9996643783444039,61.73179482137883
6.864246784,0.9998014795142401,61.57886198979218
6.866533376,0.9999514016037367,61.42385167385223
6.868819456,1.0001044468182927,61.26665633281716
6.871106048,1.0002512073186531,61.10729747897175
6.87339264,1.0003820587478462,60.94591829989894
6.87567872,1.0004889436448785,60.78284915335042
6.877965312,1.0005649782486898,60.618434970105255
6.880251392,1.00060539593747,60.45321023040625
6.882537984,1.0006074952334383,60.2876806461622
6.884824064,1.000571153101332,60.12239098084286
6.887110656,1.000498712816202,59.95791024826239
6.889396736,1.0003945455743326,59.794706973523034
6.891683328,1.000265324025583,59.63321466263846
6.89396992,1.0001190952738344,59.47373662276677
6.896256,0.9999652391493791,59.31645428323976
6.898542592,0.9998133737370039,59.16138950067558
6.900828672,0.9996731894447901,59.00847707591701
6.903115264,0.9995535049057879,58.85745128012832
6.905401344,0.9994620112223144,58.707998350260645
6.907687936,0.9994045420244754,58.559641484203006
6.909974528,0.9993847194084555,58.41185405531204
6.912260608,0.9994038921760486,58.26410373691283
6.9145472,0.999460907333061,58.115794504700325
6.91683328,0.9995521299060518,57.966438452853325
6.919119872,0.9996718806988082,57.8155414855689
6.921405952,0.9998125022225163,57.662794117027126
6.923692544,0.9999652328794937,57.50790477941876
6.925978624,1.0001203206786617,57.350809923280075
6.928265216,1.0002679361283269,57.19151763197419
6.930551808,1.0003988381824962,57.030209999740016
6.932837888,1.00050455396579,56.86719867840615
6.93512448,1.0005785126592746,56.70287943427867
