freq,mag,phase
6.0,0.9997495160554946,-145.19296278633732
6.003322368,0.9998194648645106,-145.39287575999262
6.006644736,0.9999009997036272,-145.59391935586297
6.009966592,0.9999891636238325,-145.7961476352483
6.01328896,1.0000783991095217,-145.99966489244622
6.016611328,1.0001633466383715,-146.20443036155012
6.019933696,1.0002387366775134,-146.41038695455842
6.023256064,1.0002999161602328,-146.6173218741415
6.02657792,1.0003431073463185,-146.8250448621982
6.029900288,1.0003655879148516,-147.03320249136334
6.033222656,1.0003660445426392,-147.24154369621192
6.036545024,1.0003444207896954,-147.44976972308177
6.03986688,1.0003020629025805,-147.65756281689121
6.043189248,1.0002413969622954,-147.86461356944895
6.046511616,1.0001662695287705,-148.0707242871735
6.049833984,1.0000812941884825,-148.27565060655903
6.053156352,0.9999916500139124,-148.47936649389118
6.056478208,0.9999028596473943,-148.68182175706056
6.059800576,0.9998204208200807,-148.88302897857093
6.063122944,0.9997493987594483,-149.083184329625
6.066445312,0.9996941586070581,-149.28243853438568
6.06976768,0.9996580954903677,-149.4810436083905
6.073089536,0.9996435593520434,-149.6792830218665
6.076411904,0.9996513807451535,-149.8775000899532
6.079734272,0.9996810069216322,-150.07597128840385
6.08305664,0.9997308228299835,-150.27505251260862
6.086378496,0.9997976931528838,-150.4749308572826
6.089700864,0.9998774873414369,-150.6759091771287
6.093023232,0.9999651918458947,-150.87806937982603
6.0963456,1.0000557469221096,-151.08151864927592
6.099667968,1.0001432584667953,-151.28628087013027
6.102989824,1.0002225060465584,-151.4922287802727
6.106312192,1.0002885210898373,-151.69920954909227
6.10963456,1.0003373104120885,-151.9070456719873
6.112956928,1.0003657616560837,-152.11544833064607
6.116279296,1.000372172919145,-152.32411633691515
6.119601152,1.00035614847133,-152.53270852550543
6.12292352,1.0003186329358118,-152.74093392751416
6.126245888,1.0002619228174436,-152.94849071678172
6.129568256,1.0001894700233256,-153.15514711875105
6.132890112,1.0001056662228758,-153.36068365486904
6.13621248,1.0000157589181997,-153.56500213490347
6.139534848,0.9999252270467579,-153.76802425812332
6.142857216,0.9998397283526104,-153.9698152059716
6.146179584,0.9997644289547466,-154.17042521743087
6.14950144,0.9997039269201878,-154.37010412588714
6.152823808,0.9996621696114795,-154.56904087829045
6.156146176,0.9996414944735835,-154.767542732759
6.159468544,0.9996433694567386,-154.9659180952425
6.162790912,0.9996676025664109,-155.16446955629172
6.166112768,0.9997128797190741,-155.36355102690123
6.169435136,0.9997762352367312,-155.5634064057627
6.172757504,0.9998538353553026,-155.76425038857545
6.176079872,0.9999409806535126,-155.96631827135303
6.17940224,1.0000322929513,-156.1696828947963
6.182724096,1.0001221088232615,-156.3743337034822
6.186046464,1.0002048724933086,-156.58022477488822
6.189368832,1.000275597598274,-156.78722884993633
6.1926912,1.0003298671357896,-156.99512449102662
6.196013056,1.0003642921682572,-157.20369618945784
6.199335424,1.0003768158571225,-157.41257594789172
6.202657792,1.0003665846885301,-157.62150392834752
6.20598016,1.000334214612762,-157.8301315880954
6.209302528,1.0002817110436515,-158.03817345118577
6.212624384,1.000212289314815,-158.2453513701212
6.215946752,1.0001301268249259,-158.4514389223824
6.21926912,1.0000403868702332,-158.6563063747612
6.222591488,0.9999484464892895,-158.8598872706286
6.225913856,0.9998602167932937,-159.06218119695234
6.229235712,0.9997807749066725,-159.26327067571623
6.23255808,0.999715293673251,-159.4633688608936
6.235880448,0.999667718230779,-159.66261750899358
6.239202816,0.9996409914438799,-159.86135723293785
6.242524672,0.9996367950986674,-160.05987838807087
6.24584704,0.9996553780664443,-160.25850801057547
6.249169408,0.999695674567589,-160.45757350538443
6.252491776,0.9997552663109415,-160.65733798811576
6.255814144,0.9998303252277115,-160.85809127807482
6.259136,0.999916346260361,-161.0599777878351
6.262458368,1.0000080688958644,-161.26316254737586
6.265780736,1.0000998372977008,-161.46766414696472
6.269103104,1.0001859436275455,-161.6734400206138
6.272425472,1.0002611560589179,-161.88040046767122
6.275747328,1.0003208518260358,-162.0883374424049
6.279069696,1.000361163309555,-162.29699186494383
6.282392064,1.0003798639057184,-162.5060476458579
6.285714432,1.0003756720148882,-162.7152429769023
6.2890368,1.0003487179287738,-162.92422716568532
6.292358656,1.0003007934125765,-163.13264771390197
6.295681024,1.000234716992175,-163.3403175664985
6.299003392,1.0001546150349778,-163.54690455532545
6.30232576,1.000065423318791,-163.75232431752607
6.305647616,0.999972549800798,-163.95641464651743
6.308969984,0.9998816390323799,-164.15920316879556
6.312292352,0.9997985432354062,-164.36074796796103
6.31561472,0.9997281628906697,-164.5612004646341
6.318937088,0.9996748231461617,-164.76078533171102
6.322258944,0.999641918138748,-164.95973693260726
6.325581312,0.9996316051207499,-165.15838039581354
6.32890368,0.9996443334790197,-165.35705297786936
6.332226048,0.9996794570338625,-165.556066203457
6.335548416,0.9997347754321678,-165.7557532320402
6.338870272,0.9998069427172357,-165.95632209321712
6.34219264,0.999891501811091,-166.15803995429042
6.345515008,0.9999832549916944,-166.36100632027612
6.348837376,1.000076587579577,-166.56532847834546
6.352159232,1.0001657664607888,-166.77094534865716
6.3554816,1.0002452004551936,-166.97777736304562
6.358803968,1.000310126460293,-167.18567501840184
6.362126336,1.0003564680022963,-167.39435447106493
6.365448704,1.0003814763369927,-167.60355226826644
6.36877056,1.0003834001501646,-167.81296734933736
6.372092928,1.0003621376333036,-168.0221955783847
6.375415296,1.0003190543370575,-168.2310199196951
6.378737664,1.0002568571501633,-168.43908602901524
6.382060032,1.0001791274086576,-168.64614313547713
6.385381888,1.0000908608933319,-168.85205490638654
6.388704256,0.9999973706548826,-169.0566124124132
6.392026624,0.9999043875162688,-169.25988189269913
6.395348992,0.9998175819526222,-169.46185538691512
6.398670848,0.9997425927118793,-169.66270138926913
6.401993216,0.9996837000092278,-169.86254783086324
6.405315584,0.9996446712107954,-170.0617175398705
6.408637952,0.9996280066805775,-170.26049548158383
6.41196032,0.9996346674673412,-170.45917772892972
6.415282176,0.9996643582064776,-170.6581439775866
6.418604544,0.9997150518800151,-170.85767160455396
6.421926912,0.9997838852932311,-171.05806159415997
6.42524928,0.9998665683868034,-171.25954769976028
6.428571648,0.9999579831240732,-171.46226873077444
6.431893504,1.000052501571139,-171.66634575682727
6.435215872,1.0001443932715155,-171.87176537296222
6.43853824,1.0002278771392483,-172.07844018012528
6.441860608,1.0002978460041265,-172.28619752501754
6.445182976,1.0003500671214534,-172.49486237866904
6.448504832,1.000381184948308,-172.7040929798151
6.4518272,1.0003895051623832,-172.913630115908
6.455149568,1.0003742599787386,-173.1231430298813
6.458471936,1.0003363834605965,-173.33224873032484
6.461793792,1.000278232329298,-173.5406733018323
6.46511616,1.0002034142246177,-173.74820181014962
6.468438528,1.0001165554826124,-173.95452134741737
6.471760896,1.000022767830463,-174.1595692627604
6.475083264,0.9999279970645805,-174.3632721817062
6.47840512,0.9998380340704213,-174.56567064568137
6.481727488,0.9997584173312368,-174.76685308161896
6.485049856,0.9996941172189815,-174.96697676676004
6.488372224,0.9996489948313176,-175.1663253170988
6.491694592,0.9996259866533557,-175.36520640766958
6.495016448,0.9996263489389449,-175.5638978988255
6.498338816,0.999650246457233,-175.762788194132
6.501661184,0.9996961487733002,-175.9621670693194
6.504983552,0.999761311293408,-176.16235257355052
6.508305408,0.9998416721332269,-176.36357801516175
6.511627776,0.9999322870275285,-176.5660098993132
6.514950144,1.0000276316190078,-176.76978501104125
6.518272512,1.0001218431693557,-176.97493321142937
6.52159488,1.0002090986065408,-177.1813848621045
6.524916736,1.0002840463522649,-177.38898771778148
6.528239104,1.000341995801741,-177.59753629890133
6.531561472,1.0003794888360469,-177.80678127527435
6.53488384,1.0003941753535448,-178.01641149650453
6.538206208,1.000384957590775,-178.22607834846596
6.541528064,1.0003526148623827,-178.4354333168192
6.544850432,1.0002989970125515,-178.64420195986563
6.5481728,1.000227442598014,-178.85207856656962
6.551495168,1.0001423167858374,-179.0588493899448
6.554817024,1.000048696922803,-179.26433348004673
6.558139392,0.9999525563054676,-179.46842294336855
6.56146176,0.9998597025524075,-179.67120884587538
6.564784128,0.9997758505306945,-179.87270676898805
6.568106496,0.9997062477630746,179.9268874949655
6.571428352,0.9996550011187854,179.72735861803997
6.57475072,0.9996256310940527,179.5283880044326
6.578073088,0.9996195844654857,179.32969200407405
6.581395456,0.9996375057631112,179.13090600896967
6.584717824,0.9996782063820594,178.93171295592563
6.58803968,0.9997392081051762,178.73178721367108
6.591362048,0.999816834755367,178.53086188886476
6.594684416,0.9999062479996716,178.3287401669531
6.598006784,1.0000021005517292,178.12526189944703
6.601329152,1.0000981776688544,177.92047450892238
6.604651008,1.0001889293637012,177.71430846524868
6.607973376,1.0002686508589766,177.5069185192845
6.611295744,1.0003322582299103,177.29852395554786
6.614618112,1.0003759785944495,177.08934654182065
6.617939968,1.0003970990329023,176.87968529485426
6.621262336,1.0003943127892818,176.66990413689427
6.624584704,1.0003677108218836,176.46031081952864
6.627907072,1.0003190014789314,176.2512952666121
6.63122944,1.000250982402422,176.0431041714083
6.634551296,1.0001680938788875,175.83596049091474
6.637873664,1.0000751919007718,175.63009508555646
6.641196032,0.9999779472967733,175.4255890324743
6.6445184,0.9998824949056222,175.22244271543033
6.647840768,0.9997947170310786,175.02063162953812
6.651162624,0.9997199849621862,174.82000989281934
6.654484992,0.9996628348685089,174.62027464777233
6.65780736,0.9996268594337545,174.4212324518638
6.661129728,0.9996143334998591,174.2225843125301
6.664451584,0.9996260484897589,174.02390130496246
6.667773952,0.9996612689625369,173.82488937581604
6.67109632,0.9997178270526913,173.6252262803389
6.674418688,0.9997923152754459,173.4246477899073
6.677741056,0.9998801250229349,173.2228616715042
6.681062912,0.9999758925785313,173.0197916575062
6.68438528,1.0000735794442954,172.81537319129686
6.687707648,1.0001673984267232,172.60951350768744
6.691030016,1.0002515263272165,172.4024253886671
6.694352384,1.0003208119774252,172.19421497862558
6.69767424,1.0003706623315187,171.98518685897574
6.700996608,1.000398358002297,171.7755602320174
6.704318976,1.0004021593174506,171.5657099031536
6.707641344,1.0003815448399676,171.35599034855446
6.7109632,1.0003379968961574,171.14673889846807
6.714285568,1.0002739993609517,170.9382497343425
6.717607936,1.000193719656396,170.73079510082727
6.720930304,1.0001017358840367,170.5245482135288
6.724252672,1.00000398882173,170.31968098842788
6.727574528,0.9999064159106801,170.11621827616267
6.730896896,0.9998149379005081,169.91413513029002
6.734219264,0.9997352316335391,169.7132230976534
6.737541632,0.9996722306467603,169.5133558024567
6.740864,0.9996298318139054,169.3142749223325
6.744185856,0.9996106529106508,169.1156190482654
6.747508224,0.9996158790289674,168.9170831009929
6.750830592,0.9996452678676446,168.7182882946552
6.75415296,0.9996970363646256,168.51892211394616
6.757475328,0.9997680179980126,168.31867086599988
6.760797184,0.9998537007051101,168.117307753873
6.764119552,0.9999491331496995,167.91465399160452
6.76744192,1.0000480717251572,167.71060625451037
6.770764288,1.0001446966379577,167.50517480207182
6.774086144,1.0002330107324995,167.29840996340099
6.777408512,1.0003075210189805,167.09045739000064
6.78073088,1.000363601201772,166.8815970440432
6.784053248,1.0003979738377449,166.6720871932027
6.787375616,1.000408279874947,166.46226960032408
6.790697472,1.0003940607786348,166.25246346953307
6.79401984,1.000356003769779,166.043015644815
6.797342208,1.0002964027270103,165.834306965618
6.800664576,1.0002190431732099,165.62654369521303
6.803986944,1.000128640638202,165.41997657595977
6.8073088,1.0000306921529374,165.21478409999682
6.810631168,0.9999312212993237,165.01100092580495
6.813953536,0.9998364598450815,164.80860819128625
6.817275904,0.9997521338071547,164.60751853820085
6.82059776,0.9996833327956889,164.4075305021519
6.823920128,0.9996344829821344,164.20840311038978
6.827242496,0.9996086315856622,164.00976504426313
6.830564864,0.9996073136249316,163.81134340987649
6.833887232,0.9996307323137533,163.612800210989
6.837209088,0.9996771967498785,163.41373539609074
6.840531456,0.9997442637434625,163.21387391830888
6.843853824,0.9998275165190808,163.01292458077887
6.847176192,0.9999219291275999,162.81073083260492
6.85049856,1.0000218108846513,162.60713556711525
6.853820416,1.000120824383891,162.40212398225194
6.857142784,1.000212968845832,162.19572869063504
6.860465152,1.0002927483125874,161.9881410813455
6.86378752,1.00035499425575,161.7795152609821
6.867109888,1.0003958941505764,161.57014975172402
6.870431744,1.000412986852337,161.36040686589317
6.873754112,1.000405150509466,161.1505646985942
6.87707648,1.000372980604609,160.94100078696954
6.880398848,1.000318170929411,160.73209367602539
6.883720704,1.000244295413748,160.5241078477108
6.887043072,1.0001558866024713,160.31723773943474
6.89036544,1.0000581368093686,160.11174005948058
6.893687808,0.9999572457596476,159.90765849553006
6.897010176,0.9998594567427632,159.70501396596234
6.900332032,0.9997705641715293,159.5037154441433
6.9036544,0.999696260795613,159.30359900787616
6.906976768,0.9996410494603077,159.10437408491774
6.910299136,0.9996085348421472,158.90582187745537
6.913621504,0.9996003555456279,158.70754375611196
6.91694336,0.9996173593704587,158.50922513076458
6.920265728,0.9996584338096688,158.3105130204392
6.923588096,0.9997210701600805,158.11106368325886
6.926910464,0.9998014701002188,157.9105622089151
6.93023232,0.9998945848122077,157.7088496665944
6.933554688,0.9999946912116242,157.50574615065403
6.936877056,1.000095832733398,157.30120294263722
6.940199424,1.0001915880302334,157.09527525638586
6.943521792,1.0002762329020685,156.88803946982563
6.946843648,1.000344347786439,156.67973111442163
6.950166016,1.000391953453083,156.4705717918238
6.953488384,1.0004157932346378,156.2609408819718
6.956810752,1.0004147268426131,156.05113110409997
6.96013312,1.0003885420575496,155.84153103844554
6.963454976,1.0003389189750382,155.63245903372757
6.966777344,1.0002690125811569,155.4242532636458
6.970099712,1.0001827524570113,155.21714780137054
6.97342208,1.0000858068263823,155.01137738993455
6.976743936,0.9999838765641221,154.8070181088619
6.980066304,0.9998833361316699,154.60414702351676
6.983388672,0.9997904148833083,154.40264038498478
6.98671104,0.9997107615774505,154.20238148929232
6.990033408,0.9996494618827847,154.00314082988177
6.993355264,0.9996099870492203,153.8046400304904
6.996677632,0.9995949946612779,153.60654397109315
7.0,0.9996053992142842,153.4084767794963
7.003322368,0.9996406463801282,153.21008896193845
7.006644736,0.9996986281459673,153.01103456323636
7.009966592,0.9997755753379028,152.81104138690284
7.01328896,0.9998669192468117,152.6098412862783
7.016611328,0.9999670875320826,152.40726535164538
7.019933696,1.0000697846077748,152.20326758997152
7.023256064,1.0001688834473819,151.9978092688015
7.02657792,1.000258104128026,151.79101579776125
7.029900288,1.000332044590095,151.58307606285484
7.033222656,1.0003860260545314,151.37420022646668
7.036545024,1.0004170188198613,151.1647356629077
7.03986688,1.0004226761518276,150.9550105696284
7.043189248,1.0004029328882846,150.74536048408405
7.046511616,1.000358833069946,150.53620078554889
7.049833984,1.000293121382204,150.32782808487144
7.053156352,1.0002097383235689,150.12051052496432
7.056478208,1.0001139185725574,149.9144939738498
7.059800576,1.0000114666308868,149.70991951727885
7.063122944,0.9999086794277463,149.5067944380897
7.066445312,0.9998119181121384,149.30511162965297
7.06976768,0.9997271250947956,149.1047233461887
7.073089536,0.999659545130662,148.9054771186926
7.076411904,0.9996133753657499,148.70705081862272
7.079734272,0.9995913729166582,148.5091042629667
7.08305664,0.9995950630407164,148.3112849777737
7.086378496,0.9996241052209325,148.11324049202236
7.089700864,0.9996769816194744,147.91463723124497
7.093023232,0.9997501642486354,147.71515769997632
7.0963456,0.9998392535594938,147.51450373726635
7.099667968,0.9999389313273533,147.31247522981374
7.102989824,1.0000428842349458,147.10904867029342
7.106312192,1.0001447767066685,146.90411678480947
7.10963456,1.0002384481944888,146.6978217257647
7.112956928,1.000317966774704,146.49026525704386
7.116279296,1.0003784984022204,146.28171822991982
7.119601152,1.0004162435357915,146.0725061435315
7.12292352,1.0004290462551377,145.86289031267142
7.126245888,1.0004158050086187,145.65330221616887
7.129568256,1.000377492756593,145.44409282744485
7.132890112,1.0003165138461727,145.2356080789632
7.13621248,1.0002363932564606,145.02810293005115
7.139534848,1.000142145975068,144.82186908420798
7.142857216,1.0000395655281682,144.61705724350617
7.146179584,0.9999348875803858,144.4137377608328
7.14950144,0.9998347058864375,144.21189222411664
7.152823808,0.9997449532309717,144.01142076201836
7.156146176,0.9996713621103087,143.81211294728973
7.159468544,0.9996184755142673,143.61374433444277
7.162790912,0.9995894739741843,143.4159570731413
7.166112768,0.9995861604440516,143.21842254962604
7.169435136,0.9996089778192742,143.02076421312103
7.172757504,0.9996562098044215,142.82258951744825
7.176079872,0.9997251460374115,142.62362028459185
7.17940224,0.9998116994363836,142.42353840490063
7.182724096,0.9999103081960301,142.22212646616063
7.186046464,1.0000150446018612,142.01928245126462
7.189368832,1.0001194930722317,141.81493712333614
7.1926912,1.0002172333795971,141.6091716527308
7.196013056,1.00030206928728,141.4020771861342
7.199335424,1.0003689755448122,141.19392148707837
7.202657792,1.000413697578292,140.98496280841402
7.20598016,1.000433564378252,140.77555036536916
7.209302528,1.0004271626492045,140.56607678341567
7.212624384,1.0003951011202976,140.35683474789818
7.215946752,1.0003391073914123,140.14828584084628
7.21926912,1.0002626631457876,139.9406489449101
7.222591488,1.0001704698856142,139.73423933140512
7.225913856,1.0000682685363753,139.52923814454934
7.229235712,0.9999622359641891,139.3257155863903
7.23255808,0.9998588082593153,139.12369750815643
7.235880448,0.9997643854432183,138.92311836141292
7.239202816,0.999685125188525,138.72380012094388
7.242524672,0.9996254440884811,138.52547912037522
7.24584704,0.9995892950536853,138.32787268327482
7.249169408,0.9995789467881383,138.13058813659498
7.252491776,0.9995949551684458,137.93328826876183
7.255814144,0.9996363709888625,137.73560441678373
7.259136,0.999700877951067,137.53713712696214
7.262458368,0.999784165807788,137.3376859861239
7.265780736,0.9998814910954311,137.13688637712036
7.269103104,0.9999864761385181,136.9346609384379
7.272425472,1.0000931916363165,136.73093609081465
7.275747328,1.000194525875578,136.52576564024426
7.279069696,1.000284449522265,136.31919112193518
7.282392064,1.0003576786600992,136.11148465859253
7.285714432,1.0004093093306141,135.90285774940247
7.2890368,1.000436352634738,135.69366101827342
7.292358656,1.000437048632851,135.48433104598828
7.295681024,1.000411240875698,135.27516960339958
7.299003392,1.000360844326983,135.0665337313393
7.30232576,1.0002884795906795,134.85883301428413
7.305647616,1.0001988781626998,134.6522484585807
7.308969984,1.0000972995817599,134.44705730901558
7.312292352,0.9999903204698158,134.24337824974063
7.31561472,0.9998841012645976,134.0412192320156
7.318937088,0.9997854914997637,133.840550634692
7.322258944,0.999700519981328,133.6412143709383
7.325581312,0.9996343339527753,133.44295661059053
7.32890368,0.9995910155972744,133.24550862644705
7.332226048,0.9995733795635373,133.04850796149003
