freq,mag,phase
6.0,0.9997026966509857,-23.287276820559065
6.015122944,0.9999090736373755,-23.83842229543198
6.030245888,1.0001204608319716,-24.3924105760332
6.045368832,1.0003271822793818,-24.94922427620331
6.060491264,1.000520340214066,-25.508749450764768
6.075614208,1.0006912297177326,-26.07077049860031
6.090737152,1.000832840643893,-26.63497735860773
6.105860096,1.0009388754896646,-27.201048286519285
6.12098304,1.001004503317671,-27.768431475074685
6.136105984,1.0010269503553653,-28.336684192239467
6.151228928,1.0010050312996472,-28.905267443684245
6.16635136,1.0009395519200004,-29.473687585832447
6.181474304,1.0008335818318448,-30.04139734407713
6.196597248,1.000691198815596,-30.607966443315433
6.211720192,1.0005185499160167,-31.172997102227747
6.226843136,1.0003232740828358,-31.73617144962303
6.24196608,1.0001134434746617,-32.297233570986705
6.257089024,0.9998983280846846,-32.85608817981304
6.272211968,0.9996870933342208,-33.41272111426775
6.2873344,0.9994888119286689,-33.96719413390325
6.302457344,0.9993121503837502,-34.51975190696412
6.317580288,0.9991650741637743,-35.07072073935659
6.332703232,0.9990535488019792,-35.62042434327903
6.347826176,0.9989828957881872,-36.16933623623041
6.36294912,0.9989562326656993,-36.718009011397136
6.378072064,0.9989745157755696,-37.266948686496846
6.393194496,0.9990373762753182,-37.816707641643326
6.40831744,0.9991420726788619,-38.36777659955316
6.423440384,0.9992843365735344,-38.92061158389836
6.438563328,0.9994578404840454,-39.47571097828494
6.453686272,0.999655237335563,-40.03335016779816
6.468809216,0.9998680587435538,-40.59376970108112
6.48393216,1.0000871971208565,-41.15713493516367
6.499054592,1.0003030985710888,-41.72340146175702
6.514177536,1.0005065934177308,-42.29256391594846
6.52930048,1.0006886060805609,-42.86435980701475
6.544423424,1.0008413814332806,-43.4384772339022
6.559546368,1.0009582874146417,-44.01460156849915
6.574669312,1.0010340813352085,-44.59219496950559
6.589792256,1.001065436799325,-45.17082248747872
6.604914688,1.0010510527305596,-45.74989485032846
6.620037632,1.0009912898078137,-46.328843231481635
6.635160576,1.0008884246659357,-46.90723379917621
6.65028352,1.0007470185108207,-47.48453372709199
6.665406464,1.0005731399636537,-48.060265555658816
6.680529408,1.0003739757596553,-48.63413444044569
6.695652352,1.0001580841753743,-49.20589347974776
6.710775296,0.9999349036781346,-49.77540279747607
6.725897728,0.999713891153522,-50.34255457755166
6.741020672,0.9995046500664572,-50.907510611149085
6.756143616,0.99931634114718,-51.47041090301761
6.77126656,0.9991570136137378,-52.031562539645435
6.786389504,0.999033761494822,-52.59133581403699
6.801512448,0.9989519139490061,-53.150228109915226
6.816635392,0.9989150799135782,-53.70874745420786
6.831757824,0.9989250631274494,-54.267443042075016
6.846880768,0.9989817315177666,-54.826882776768635
6.862003712,0.999082574749651,-55.38759500381106
6.877126656,0.999223253563321,-55.95005679277602
6.8922496,0.9993979765200687,-56.51480556718397
6.907372544,0.9995989227740203,-57.08215973748647
6.922495488,0.9998180219769858,-57.652353446129425
6.93761792,1.0000455026152624,-58.22559359413709
6.952740864,1.0002717274055608,-58.80186251199617
6.967863808,1.0004867442089111,-59.38113626909538
6.982986752,1.0006814740609717,-59.96323259145765
6.998109696,1.0008473334214802,-60.547852436417465
7.01323264,1.0009770231687758,-61.134618934877615
7.028355584,1.001065039537291,-61.723060747797476
7.043478016,1.0011075949104864,-62.312633901081824
7.05860096,1.001102217234916,-62.90283492943761
7.073723904,1.001049603715234,-63.49307859031127
7.088846848,1.0009516108203416,-64.08275914621295
7.103969792,1.000812197217865,-64.67142494426582
7.119092736,1.0006375338839566,-65.25859585800372
7.13421568,1.0004348990221932,-65.84389475744584
7.149338624,1.0002126835957579,-66.42705630636006
7.164461056,0.9999808764963936,-67.00786397917113
7.179584,0.9997490198110456,-67.58623984604559
7.194706944,0.9995274054181276,-68.1622593452255
7.209829888,0.9993255978847061,-68.73611505762688
7.224952832,0.9991521471307401,-69.30808310843761
7.240075776,0.9990147910390833,-69.8785472046827
7.25519872,0.9989195747960697,-70.4479758920844
7.270321152,0.9988707301477376,-71.01688759983342
7.285444096,0.9988704127217621,-71.5858447604444
7.30056704,0.9989189857908762,-72.15543930834134
7.315689984,0.9990140574755872,-72.72623921012494
7.330812928,0.9991520928502616,-73.29879440649985
7.345935872,0.9993272725204408,-73.87358090328667
7.361058816,0.9995317891138686,-74.45101009511822
7.376181248,0.9997572025704248,-75.0313701526816
7.391304192,0.9999935917758446,-75.61484161821969
7.406427136,1.0002310991268635,-76.20157659133208
7.42155008,1.0004592722538372,-76.79140321196518
7.436673024,1.0006683320746037,-77.38423931449336
7.451795968,1.000849290353024,-77.9797657447104
7.466918912,1.0009942894845991,-78.57764245548837
7.482041344,1.0010968104981164,-79.17741465400069
7.497164288,1.001152560075351,-79.77849721155987
7.512287232,1.0011589078734464,-80.38033360676133
7.527410176,1.0011153065536615,-80.9823539420682
7.54253312,1.0010237920728087,-81.58395404123193
7.557656064,1.0008876879168855,-82.18461198506319
7.572779008,1.0007132045577953,-82.78382040046618
7.587901952,1.0005073031473521,-83.38113361221464
7.603024384,1.0002790782706694,-83.97626330892004
7.618147328,1.0000378930467855,-84.56898885496106
7.633270272,0.9997943701511448,-85.15918312725874
7.648393216,0.9995588888862166,-85.74688941848126
7.66351616,0.9993415225965825,-86.33225867275647
7.678639104,0.9991519609117322,-86.91555638643943
7.693762048,0.9989981220866555,-87.49717364379077
7.70888448,0.998887022555061,-88.07757447913997
7.724007424,0.9988234961808427,-88.65725078267515
7.739130368,0.9988104939048894,-89.23685494991739
7.754253312,0.9988484681308233,-89.81697352568328
7.769376256,0.998936277831078,-90.39817876412427
7.7844992,0.9990701886038954,-90.98111246739508
7.799622144,0.999244524789774,-91.56622614193743
7.814744576,0.999451922283844,-92.15397583374161
7.82986752,0.9996835610802257,-92.74474599335717
7.844990464,0.9999294798015748,-93.33876075239374
7.860113408,1.0001791920794056,-93.93608040116798
7.875236352,1.0004220345909063,-94.53675346514102
7.890359296,1.0006475743358136,-95.14059576695277
7.90548224,1.0008457812883556,-95.74734978715784
7.920604672,1.0010085294716689,-96.35666536796151
7.935727616,1.00112839550586,-96.96805691750345
7.95085056,1.0012001331531433,-97.58100054447027
7.965973504,1.0012205680014403,-98.19490437640466
7.981096448,1.0011887627088956,-98.8091450075709
7.996219392,1.0011056571244215,-99.4231145760381
8.011342336,1.0009749192883286,-100.0362110697075
8.02646528,1.0008016632408785,-100.64791660405862
8.041587712,1.0005935305144602,-101.25776422072704
8.056710656,1.0003590971128684,-101.8653449839497
8.0718336,1.0001083309746663,-102.47045357861784
8.086956544,0.9998520640622612,-103.0729043007575
8.102079488,0.9996011929478217,-103.67275190235368
8.117202432,0.9993664598713462,-104.27003736193785
8.132325376,0.9991581785379476,-104.865035959571
8.147447808,0.9989853151099253,-105.45817603364505
8.162570752,0.9988553021752857,-106.04985330487386
8.177693696,0.998774190640881,-106.64063630412211
8.19281664,0.9987453810883314,-107.23111007018684
8.207939584,0.9987704107524905,-107.82192050118525
8.223062528,0.9988483908163828,-108.41372716931518
8.238185472,0.998976034802947,-109.00711842107654
8.253307904,0.9991481375790497,-109.60265512937794
8.268430848,0.9993574734410052,-110.20085489161065
8.283553792,0.999595081790238,-110.80207466838816
8.298676736,0.9998508653921763,-111.4066450309461
8.31379968,1.0001138786238029,-112.01466434827339
8.328922624,1.000372837823483,-112.62623645250925
8.344045568,1.000616819096648,-113.2411595968252
8.359168,1.0008350511091304,-113.85923366464212
8.374290944,1.0010183270427264,-114.4800933140975
8.389413888,1.0011584093241115,-115.10331258076563
8.404536832,1.0012493789148038,-115.7283112266407
8.419659776,1.0012872120264569,-116.35447052104962
8.43478272,1.0012699132552199,-116.98119190568188
8.449905664,1.0011980883754052,-117.60781117153758
8.465028608,1.0010745803167076,-118.2336080241393
8.48015104,1.0009045377282808,-118.85814272341108
8.495273984,1.0006951301028428,-119.48081703472779
8.510396928,1.0004549875573616,-120.10123415980786
8.525519872,1.0001943543517535,-120.7190284838301
8.540642816,0.9999243950053807,-121.33407989081797
8.55576576,0.999656548404315,-121.94631937790399
8.570888704,0.9994022693205412,-122.55579489608276
8.586011136,0.9991727337661142,-123.16279752074429
8.60113408,0.9989776318191552,-123.7676221140038
8.616257536,0.998825593318828,-124.37072188460259
8.631379968,0.9987233998792564,-124.97267056682146
8.6465024,0.9986754990764435,-125.57406706828071
8.661625856,0.9986841344385098,-126.17563188368871
8.676748288,0.9987493625219116,-126.77793225613974
8.691871744,0.9988683935673569,-127.3817048267581
8.706994176,0.9990363475037268,-127.98758611222254
8.722117632,0.9992462109626169,-128.59607362703485
8.737240064,0.9994892092422373,-129.20763325058036
8.752362496,0.9997548804826076,-129.822584601211
8.767485952,1.0000320110188297,-130.44115334628006
8.782608384,1.0003087526389105,-131.06343656814101
8.79773184,1.0005734234724337,-131.6893169110564
8.812854272,1.0008143506739478,-132.31859360224414
8.827977728,1.0010213170792306,-132.95094253906194
8.84310016,1.0011852656331475,-133.58588757100244
8.858222592,1.0012992036976303,-134.22290850825036
8.873346048,1.0013578937666252,-134.86135193667988
8.88846848,1.0013587024084134,-135.50057627792876
8.903591936,1.0013014055839853,-136.1398653420169
8.918714368,1.0011880714489012,-136.77858115669613
8.933837824,1.0010233908482666,-137.4160436638581
8.948960256,1.0008141817058307,-138.05170863187948
8.964082688,1.0005692350131286,-138.68508601063644
8.979206144,1.0002987836362984,-139.31576217522243
8.994328576,1.0000143794209624,-139.94356321213536
9.009452032,0.9997279904877394,-140.56832418691312
9.024574464,0.999451978746972,-141.19010942045222
9.03969792,0.9991981381018173,-141.80912736490902
9.054820352,0.9989775464122447,-142.4256766310257
9.069942784,0.9987997436902695,-143.04017329365527
9.08506624,0.9986724469801902,-143.65322818401157
9.100188672,0.9986014355882429,-144.26542550481426
9.115312128,0.9985899760733824,-144.877469827314
9.13043456,0.9986387994924248,-145.4900972407582
9.145558016,0.9987459921152417,-146.10400382075704
9.160680448,0.998907293799765,-146.71986264690014
9.175803904,0.999116091828886,-147.33826707700982
9.190926336,0.9993633340669097,-147.95974636414422
9.206048768,0.9996388342702652,-148.58471784536366
9.221172224,0.9999308088784824,-149.21341191455508
9.236294656,1.000226917011281,-149.84600199196805
9.251418112,1.0005144173279643,-150.48241828930608
9.266540544,1.0007811290993782,-151.122542447301
9.281664,1.0010155060716468,-151.76601109994735
9.296786432,1.0012073371817969,-152.41242596481393
9.311908864,1.0013483466182256,-153.06121536548153
9.32703232,1.0014324116620223,-153.7117343018579
9.342154752,1.001455475121997,-154.36331149342453
9.357278208,1.0014165211584436,-155.01518954238227
9.37240064,1.0013167293572518,-155.6666832947031
9.387524096,1.0011603857568012,-156.31703591794687
9.402646528,1.000953495499175,-156.96564598263453
9.41776896,1.0007049260084353,-157.61196016594687
9.432892416,1.0004249612199743,-158.2555040827135
9.448014848,1.000125456641352,-158.89601024336596
9.463138304,0.9998190888408972,-159.5332882130571
9.478260736,0.9995189179138181,-160.1673164562544
9.493384192,0.9992378118345915,-160.798251722213
9.508506624,0.9989877886112551,-161.42635984257925
9.523629056,0.9987798609802084,-162.0520786333338
9.538752512,0.9986229509926271,-162.67594358591387
9.553874944,0.9985241958823678,-163.29860382601518
9.5689984,0.9984879024301667,-163.9208000561195
9.584120832,0.9985159532139737,-164.543270516048
9.599244288,0.9986076108064684,-165.16677541493186
9.61436672,0.9987590000653788,-165.7920614739159
9.629489152,0.9989641269161965,-166.41980298434555
9.644612608,0.9992142932125273,-167.0505857204636
9.65973504,0.9994990440367121,-167.684885571429
9.674858496,0.9998063647233634,-168.32307445502852
9.689980928,1.000123224804875,-168.9653241262492
9.705104384,1.0004361829228379,-169.61166010125322
9.720226816,1.0007319130028622,-170.2619976484653
9.735349248,1.0009975895690184,-170.91604501521186
9.750472704,1.0012218264902544,-171.57338741478117
9.765595136,1.0013949797180273,-172.23344549304136
9.780718592,1.0015093428863073,-172.89562413067654
9.795841024,1.0015597808344778,-173.55917866515722
9.81096448,1.001543892856768,-174.2233229274977
9.826086912,1.0014620490788178,-174.88731415235083
9.841209344,1.0013173512383136,-175.55032338269385
9.8563328,1.0011156456484078,-176.21170041941085
9.871455232,1.0008651718265078,-176.8707768805925
9.886578688,1.0005765427808115,-177.5270332839482
9.90170112,1.0002616020334958,-178.18008360512005
9.916824576,0.999933747311505,-178.8296913772758
9.931947008,0.999606908799387,-179.47574744158032
9.94706944,0.9992949825252426,179.88164473092377
9.962192896,0.9990114353862296,179.24227962169311
9.977315328,0.9987684668666639,178.60570764574814
9.992438784,0.9985766585466106,177.97143144866698
10.007561216,0.9984443569763315,177.33877573061017
10.022684672,0.9983779047681234,176.7070084890594
10.037807104,0.9983800972402317,176.07532800366945
10.05293056,0.998451226801062,175.4429279047884
10.068052992,0.9985888946414642,174.80896264765454
10.083175424,0.9987871701439641,174.172698117959
10.09829888,0.9990381126365914,173.53346606203885
10.113421312,0.9993311945436757,172.8906716459711
10.128544768,0.9996541577103736,172.24389910689823
10.1436672,0.9999933200020852,171.59285537073697
10.158790656,1.0003342680557143,170.9374364626435
10.173913088,1.000662566697035,170.27770147767174
10.18903552,1.0009641194563934,169.61387185241415
10.204158976,1.0012260576488468,168.94633670934354
10.219281408,1.0014371145541103,168.27563366089436
10.234404864,1.001587686221377,167.60242409008666
10.249527296,1.0016714927254033,166.92742981466841
10.264650752,1.0016844254690531,166.25149453401502
10.279773184,1.0016256646674804,165.57540869400543
10.294895616,1.0014971823683279,164.90008973420709
10.310019072,1.0013041740374204,164.2262657407763
10.325141504,1.0010543827212455,163.55466978151628
10.34026496,1.0007580794973896,162.88596192369278
10.355387392,1.0004277360936196,162.22060116250898
10.370510848,1.0000770616289583,161.5589494026231
10.38563328,0.9997209361207118,160.90112921051244
10.400755712,0.9993744195781422,160.2471667213572
10.415879168,0.9990524330919381,159.5969021224367
10.4310016,0.9987688032906578,158.94990420811953
10.446125056,0.9985358354002798,158.30572572924427
10.461247488,0.9983637467695455,157.6636839228712
10.476370944,0.9982602806007002,157.0229994586423
10.491493376,0.9982303028908689,156.38286292821942
10.506615808,0.9982753200490034,155.74234975319868
10.521739264,0.9983939981678462,155.1006195766105
10.536861696,0.9985816460912116,154.45677693575516
10.551985152,0.9988305528318141,153.81008310855762
10.567107584,0.9991304195672807,153.15981856209945
10.58223104,0.9994690009733317,152.5054820625849
10.597353472,0.9998316969745862,151.84667237917506
10.612475904,1.0002035158740723,151.18318924672866
10.62759936,1.000568455128235,150.5150016948858
10.642721792,1.0009110825500869,149.84231992374237
10.657845248,1.0012168563957593,149.1654393371811
10.67296768,1.001472287752797,148.48488677239092
10.688091136,1.0016664572965792,147.80131273289086
10.703213568,1.001790836673487,147.115483630619
10.718336,1.0018395214483047,146.42826448177541
10.733459456,1.0018102147361208,145.74053646577644
10.748581888,1.0017035567217323,145.0532397553085
10.763705344,1.0015237600006377,144.36728860636
10.778827776,1.0012777698161486,143.68345178395506
10.793951232,1.00097580239128,143.00249949419052
10.809073664,1.0006302246081897,142.32503207675163
10.824196096,1.0002554093675575,141.65150749331826
10.839319552,0.9998671617255123,140.98216549947546
10.854441984,0.9994818255269832,140.3171110996381
10.86956544,0.9991158952262521,139.65622620429625
10.884687872,0.9987849104349692,138.99923767074918
10.899811328,0.998503459016722,138.3455853562596
10.91493376,0.9982836318522351,137.6946868762607
10.930057216,0.9981353222174515,137.04574162806446
10.945179648,0.9980652065829019,136.39786749409873
10.96030208,0.9980769602564478,135.7500873078065
10.975425536,0.9981703942700052,135.10147603273222
10.990547968,0.9983421909446389,134.4510222871545
11.005671424,0.998585311278717,133.79787332559408
11.020793856,0.99888997040746,133.14119089949753
11.035917312,0.9992435345759137,132.48036847436435
11.051039744,0.999631301288672,131.8148443007995
11.066162176,1.0000368591378632,131.14431740704248
11.081285632,1.000443213993473,130.46870253949442
11.096408064,1.000832952618618,129.78803153971757
11.11153152,1.0011896039722599,129.1026485959872
11.126653952,1.0014977297265661,128.41296977724443
11.141777408,1.0017440376291218,127.71964347790173
11.15689984,1.0019176357151445,127.02347928225564
11.172022272,1.002010793246923,126.32539972373247
11.187145728,1.0020188872645468,125.62633161680965
11.20226816,1.0019412658670765,124.92729165266778
11.217391616,1.001780324151057,124.22926113627243
11.232514048,1.001542564517565,123.53322567623023
11.247637504,1.0012373191805701,122.84002791859605
11.262759936,1.0008772167468896,122.15041279282782
11.277882368,1.0004769729081366,121.4649348837423
11.293005824,1.000053358063037,120.78403466905768
11.308128256,0.9996242032387447,120.10787822140193
11.323251712,0.9992075443044741,119.43644311814116
11.338374144,0.9988213853674489,118.76951305488184
11.3534976,0.998482397739842,118.10664371679816
11.368620032,0.9982052227574458,117.44720077145351
11.383742464,0.9980020952337142,116.79039193719449
11.39886592,0.9978822348048583,116.13530677147696
11.413988352,0.9978515258493736,115.48089180719361
11.429111808,0.9979116640301562,114.82609969628504
11.44423424,0.9980607615658068,114.16983505755303
11.459357696,0.9982933886295889,113.5110862446316
11.474480128,0.9985997499155363,112.84889935014397
11.48960256,0.9989676253886449,112.18247117796713
11.504726016,0.9993817084505607,111.51114011230936
11.519848448,0.9998245929167096,110.83442962874292
11.534971904,1.0002777732543187,110.15211746359682
11.550094336,1.0007221364462136,109.46420116960842
11.565217792,1.0011385885204813,108.7708515983834
11.580340224,1.001509300833665,108.07250249099218
11.595462656,1.0018186329252081,107.36978322591612
11.610586112,1.0020526048280418,106.6634847244138
11.625708544,1.0022009618960777,105.95451271716522
11.640832,1.002256929154188,105.24396191791854
11.655954432,1.002217248612552,104.53290460821329
11.671077888,1.0020829967784017,103.82243742552738
11.68620032,1.0018590077092926,103.11370149906325
11.701322752,1.0015541087188469,102.40768557275493
11.716446208,1.001180649266154,101.70528158272374
11.73156864,1.0007535976582795,101.00722775540531
11.746692096,1.000290932747605,100.3141046468329
11.761814528,0.9998118068987856,99.6262089807755
11.776937984,0.9993364532012521,98.94366564719046
11.792060416,0.9988850195102977,98.26633826999218
11.807183872,0.9984770745489863,97.59382235089042
11.822306304,0.9981301891099315,96.92556613771013
11.837428736,0.9978596218350307,96.26076571342699
11.852552192,0.9976776234056609,95.5984212445481
11.867674624,0.9975925151462149,94.93748887162022
11.88279808,0.9976089223239043,94.27672851261353
11.897920512,0.9977267832113931,93.61496018039347
11.913043968,0.9979419331798347,92.95102374047997
11.9281664,0.9982460079962703,92.2837283082215
11.943288832,0.9986266283280066,91.61213397856403
11.958412288,0.999068414673459,90.9353772209148
11.97353472,0.9995529243117306,90.25286437991001
11.988658176,1.0000599329092257,89.56412332808578
12.003780608,1.0005680300111006,88.86907765042656
12.018904064,1.0010557671523064,88.16775487783221
