freq,mag,phase
6.0,1.0003993388538508,-45.09161857305849
6.002860032,1.000407065123783,-45.22964985139142
6.005720576,1.000390666733115,-45.367626434794204
6.008580608,1.0003500030701502,-45.50523568489146
6.01144064,1.0002877423228236,-45.642143801582826
6.014301184,1.0002075585821473,-45.77805074560607
6.017161216,1.0001146977282387,-45.912725227714965
6.020021248,1.0000148281261103,-46.046053196176075
6.022881792,0.9999141719093663,-46.1779819685857
6.025741824,0.9998191828195698,-46.308525239386974
6.028601856,0.9997356476892368,-46.43779818464765
6.0314624,0.9996691757060138,-46.56602935822389
6.034322432,0.9996235027179999,-46.69350096260837
6.037182464,0.9996015262534121,-46.82049743691177
6.040043008,0.9996051307815307,-46.94736673244447
6.04290304,0.9996333963463112,-47.07453672872848
6.045763072,0.9996852821761399,-47.20228139535153
6.048623616,0.9997570871112975,-47.330987788120034
6.051483648,0.9998442765916589,-47.46086314664169
6.054344192,0.999941474237038,-47.59207567006947
6.057204224,1.0000427191637402,-47.72481968861582
6.060064256,1.000141575264347,-47.85899912802614
6.0629248,1.0002318097406142,-47.994573994624936
6.065784832,1.0003078826848508,-48.131442744629844
6.068644864,1.0003649697276935,-48.26922417545962
6.071505408,1.0003993291360005,-48.407748873088295
6.07436544,1.0004088827521356,-48.54665742505201
6.077225472,1.000393222447578,-48.68547887051966
6.080086016,1.0003530993000174,-48.82393611770015
6.082946048,1.0002910784537644,-48.96175386930623
6.08580608,1.0002109870190015,-49.098553069414415
6.088666624,1.0001178730239648,-49.234128467692564
6.091526656,1.0000178624609495,-49.368344501255194
6.094386688,0.9999168177140274,-49.501162571546544
6.097247232,0.9998210619241042,-49.632541141804246
6.100107264,0.9997367732923257,-49.76268806656061
6.102967296,0.9996693272592272,-49.89178551565245
6.10582784,0.9996228831449724,-50.02005564015137
6.108687872,0.9996001613403376,-50.147857165305695
6.111547904,0.9996029085221415,-50.27553840584236
6.114408448,0.9996307080913026,-50.403487941194605
6.11726848,0.9996819082857239,-50.53202888223769
6.120128512,0.9997536794186893,-50.66153330781217
6.122989056,0.9998408101760088,-50.792167843952036
6.125849088,0.9999383176196901,-50.924212196681694
6.12870912,1.0000400096388802,-51.05772791254968
6.131569664,1.0001394489491648,-51.1927109796184
6.134429696,1.000230535101064,-51.329115057901085
6.137289728,1.00030723191367,-51.46678261175008
6.140150272,1.0003651034772645,-51.60539817825979
6.143010304,1.0004003641430075,-51.744763324236146
6.145870336,1.0004109164640116,-51.88451194662729
6.14873088,1.0003956991881022,-52.024237426751945
6.151590912,1.0003561430384669,-52.1635785633085
6.154450944,1.0002945661572893,-52.30223687748323
6.157311488,1.0002145694091031,-52.439919509244035
6.16017152,1.000121497819361,-52.57637132155677
6.163032064,1.000020980344345,-52.71148989936418
6.165892096,0.9999192391658861,-52.845157509071846
6.168752128,0.9998228890717795,-52.977403325334464
6.171612672,0.9997378349425063,-53.10842721301371
6.174472704,0.9996696177623369,-53.23830240755573
6.177332736,0.9996221484218702,-53.36745504711297
6.18019328,0.9995985668095488,-53.49605277219347
6.183053312,0.9996006037242693,-53.62454050259976
6.185913344,0.9996278493016809,-53.753332910463826
6.188773888,0.9996786333755407,-53.882624411377996
6.19163392,0.9997499450600653,-54.01291614040863
6.194493952,0.9998370739062645,-54.14435025458827
6.197354496,0.9999348782952063,-54.27716605866937
6.200214528,1.0000369154155753,-54.411466421817934
6.20307456,1.0001369314923554,-54.547226218279896
6.205935104,1.0002289545555183,-54.684418553504386
6.208795136,1.0003065531235247,-54.82289705160783
6.211655168,1.000365179261703,-54.96234550120968
6.214515712,1.0004014951215068,-55.1025675204663
6.217375744,1.0004128729183897,-55.24311578069885
6.220235776,1.0003984473837364,-55.38370439075695
6.22309632,1.000359362154158,-55.52394258019576
6.225956352,1.0002980868603764,-55.66349751497445
6.228816384,1.0002182562900117,-55.80204111742749
6.231676928,1.0001250883118702,-55.939372475085136
6.23453696,1.000024210157114,-56.07534169088075
6.237396992,0.9999221150745122,-56.20989139337454
6.240257536,0.9998249417312647,-56.34300894477481
6.243117568,0.9997392340897795,-56.474853617786536
6.2459776,0.9996697977555884,-56.60561689137204
6.248838144,0.999621511049577,-56.735546571536155
6.251698176,0.9995970821031492,-56.86501340827185
6.254558208,0.9995981510025679,-56.994291896384055
6.257418752,0.99962485490037,-57.123818061256905
6.260278784,0.9996751732946815,-57.25392944097786
6.263139328,0.9997461943472536,-57.384954139652244
6.26599936,0.9998334007223806,-57.517161071621096
6.268859392,0.9999312157895349,-57.6507489340349
6.271719936,1.0000336890915584,-57.78578343359675
6.274579968,1.0001345358058644,-57.92233306488109
6.27744,1.0002270342176514,-58.06036918749956
6.280300544,1.0003056241504622,-58.19959098886614
6.283160576,1.000365356148468,-58.339912822782146
6.286020608,1.0004024879826448,-58.480922468926856
6.288881152,1.0004147231793958,-58.62234296744736
6.291741184,1.0004011170583638,-58.76377971947143
6.294601216,1.0003626984290088,-58.904889300069385
6.29746176,1.0003016115922019,-59.045308291884886
6.300321792,1.0002222191005992,-59.18470610756232
6.303181824,1.0001289132644964,-59.32291520003452
6.306042368,1.000027623882313,-59.459774687248
6.3089024,0.9999249814130884,-59.59518428650486
6.311762432,0.9998272531406155,-59.729182604661936
6.314622976,0.9997404284777855,-59.86184671291216
6.317483008,0.9996702136664974,-59.9934576827453
6.32034304,0.9996209237419279,-60.124197120618675
6.323203584,0.9995956396869285,-60.25444704075873
6.326063616,0.9995956986260055,-60.384548766173516
6.328923648,0.9996216781652912,-60.51482832345313
6.331784192,0.9996713675221973,-60.6457197009262
6.334644224,0.9997420611305299,-60.77749886960554
6.337504256,0.9998293532569925,-60.910475346942306
6.3403648,0.9999274820992218,-61.044824428097265
6.343224832,1.0000302652083484,-61.18064387741061
6.346084864,1.0001318449049483,-61.31795289469065
6.348945408,1.00022504116229,-61.45674227536413
6.35180544,1.0003045203195589,-61.596782688657434
6.354665472,1.0003653693837862,-61.73786406372781
6.357526016,1.0004034823313097,-61.87971800555453
6.360386048,1.0004164997341554,-62.02200176259832
6.36324608,1.000403820478431,-62.164257255608206
6.366106624,1.0003661104964807,-62.3062176349392
6.368966656,1.000305583117116,-62.447499596227054
6.3718272,1.0002263074859319,-62.587758214921124
6.374687232,1.0001328745697382,-62.7268572097822
6.377547264,1.0000313332498216,-62.86457439757805
6.380407808,0.9999282235892264,-63.000827863601536
6.38326784,0.9998295932196621,-63.13568462738965
6.386127872,0.9997419835848839,-63.269184078469614
6.388988416,0.9996708224910881,-63.4015897526191
6.391848448,0.9996202628046398,-63.53317631979664
6.39470848,0.9995939536736727,-63.66417984017573
6.397569024,0.9995932502126036,-63.79507527210282
6.400429056,0.9996183395194025,-63.9261251128089
6.403289088,0.9996676710384311,-64.0577624213627
6.406149632,0.9997381036791737,-64.19032745418804
6.409009664,0.9998251916246883,-64.32400885587026
6.411869696,0.99992339648529,-64.45910863918647
6.41473024,1.0000268735053626,-64.59567235668423
6.417590272,1.0001287437250435,-64.73377145980247
6.420450304,1.00022303628585,-64.87329969284265
6.423310848,1.0003035230066797,-65.01415160115401
6.42617088,1.0003653495194982,-65.1560290450736
6.429030912,1.0004044185794887,-65.29865064657238
6.431891456,1.0004186563375217,-65.44172423154235
6.434751488,1.000406715831953,-65.58484421349914
6.43761152,1.0003697253187078,-65.72768094747045
6.440472064,1.0003095953391552,-65.8697965830904
6.443332096,1.0002304157839679,-66.01094029520644
6.446192128,1.000137148500576,-66.15090058683327
6.449052672,1.0000352521120488,-66.28946144647895
6.451912704,0.9999314103656946,-66.42657115290353
6.454772736,0.9998322039710197,-66.56225559324292
6.45763328,0.9997436731573173,-66.69661841532509
6.460493312,0.9996713805952839,-66.82983522632749
6.463353344,0.9996198867610736,-66.96217426842121
6.466213888,0.9995925029812686,-67.09396288377792
6.46907392,0.9995908089041023,-67.22561163562192
6.471934464,0.9996152088488756,-67.35745245955827
6.474794496,0.9996637964857688,-67.48984960690012
6.477654528,0.9997338303684646,-67.62309537311972
6.480515072,0.9998206933870102,-67.75755449199607
6.483375104,0.9999193328270769,-67.89334645907583
6.486235136,1.000022997758824,-68.0306825292968
6.48909568,1.0001257080022443,-68.16950745815123
6.491955712,1.0002208224953733,-68.30974346572239
6.494815744,1.0003023679077336,-68.45136685520761
6.497676288,1.0003652599405912,-68.59404014017687
6.50053632,1.0004054332253585,-68.73751526041482
6.503396352,1.0004205572975733,-68.88136828048493
6.506256896,1.0004096292506266,-69.0253391474262
6.509116928,1.0003732798246352,-69.16897309944414
6.51197696,1.000313721082299,-69.31194940775646
6.514837504,1.0002348699717447,-69.45394909486907
6.517697536,1.0001413455362071,-69.59473973971596
6.520557568,1.0000393927579363,-69.73414316416479
6.523418112,0.9999350392584431,-69.8720863215261
6.526278144,0.9998349789056276,-70.00861587552143
6.529138176,0.9997454813867531,-70.14375313012026
6.53199872,0.999672132085334,-70.2778085165423
6.534858752,0.9996195335210234,-70.41095064126277
6.537718784,0.9995910826101725,-70.54355629548135
6.540579328,0.9995885091594373,-70.67591150633011
6.54343936,0.9996119199780079,-70.80847248829485
6.546299392,0.9996598943582271,-70.9415949410067
6.549159936,0.9997296188400272,-71.075572362618
6.552019968,0.9998163245380549,-71.21076152950677
6.55488,0.9999149346114858,-71.34725310585979
6.557740544,1.0000190279671404,-71.48531958749467
6.560600576,1.0001223944917204,-71.62485137408396
6.563460608,1.0002183268716458,-71.76589151700043
6.566321152,1.0003009223353048,-71.90824859880438
6.569181184,1.0003648650138086,-72.0516475673723
6.572041728,1.0004062390980053,-72.19589347106601
6.57490176,1.0004223950941176,-72.34059361327128
6.577761792,1.0004125072194179,-72.48531960703974
6.580622336,1.0003769276254935,-72.6297912422987
6.583482368,1.0003180186011853,-72.77358949515695
6.5863424,1.0002392785881387,-72.91644012747899
6.589202944,1.0001459368967018,-73.05806025071372
6.592062976,1.0000435004571417,-73.19832636568313
6.594923008,0.9999385977291289,-73.33709563288217
6.597783552,0.9998378100904229,-73.47440623660673
6.600643584,0.9997474193845999,-73.6103890144306
6.603503616,0.9996730074122321,-73.74520383799761
6.60636416,0.9996192203780043,-73.87911262020107
6.609224192,0.9995896427089718,-74.01242249717886
6.612084224,0.9995860058620887,-74.1455729478765
6.614944768,0.9996084338414857,-74.27886543222193
6.6178048,0.9996558669224705,-74.4127021672854
6.620664832,0.9997249350361727,-74.54741447287905
6.623525376,0.9998116536166491,-74.68325572478331
6.626385408,0.9999103745587081,-74.82046359051948
6.62924544,1.0000150218001396,-74.9592077877179
6.632105984,1.0001189843669747,-75.09947777204088
6.634966016,1.0002158735271394,-75.24124538009211
6.637826048,1.0002994404852623,-75.38429249385962
6.640686592,1.0003645374560446,-75.52846655723566
6.643546624,1.0004071815427056,-75.67347529789272
6.646406656,1.0004244096816468,-75.81891155455337
6.6492672,1.0004153798615207,-75.96447269860865
6.652127232,1.0003808271795034,-76.10973468633753
6.654987264,1.0003223267763537,-76.25437455601926
6.657847808,1.00024407292599,-76.39805883371076
6.66070784,1.000150730318473,-76.54050079274852
6.663567872,1.0000479860196372,-76.68155166774255
6.666428416,0.9999426439995652,-76.8211394956997
6.669288448,0.9998410619358501,-76.95926588008994
6.67214848,0.9997495255812978,-77.09603916790333
6.675009024,0.999673937824468,-77.2316352737306
6.677869056,0.9996189888521919,-77.36629506888876
6.6807296,0.9995882149775106,-77.50039231604642
6.683589632,0.9995833906953967,-77.6342174771362
6.686449664,0.9996050019890952,-77.76822003051333
6.689310208,0.9996516546291767,-77.90273603354304
6.69217024,0.9997204260888382,-78.03811872619488
6.695030272,0.9998068352350671,-78.17469896607103
6.697890816,0.9999056677556176,-78.31259034622505
6.700750848,1.00001080183882,-78.45198200497029
6.70361088,1.000115534199627,-78.59294779420019
6.706471424,1.0002130252104764,-78.73538171566688
6.709331456,1.0002978514277499,-78.87918923981255
6.712191488,1.0003642219940438,-79.02406048581202
6.715052032,1.0004079074888075,-79.16982330996623
6.717912064,1.0004264183864684,-79.31602860292372
6.720772096,1.0004185474479992,-79.46236925717886
6.72363264,1.0003845380453644,-79.60842806006295
6.726492672,1.0003268361784339,-79.75387188592804
6.729352704,1.000248898960534,-79.89831366851934
6.732213248,1.000155500399369,-80.0415834364358
6.73507328,1.0000526992074177,-80.1834537160765
6.737933312,0.9999466912073712,-80.32385792040276
6.740793856,0.9998442516801417,-80.46277222787464
6.743653888,0.9997517403983024,-80.60033300706688
6.74651392,0.9996750232784607,-80.73668564537715
6.749374464,0.9996189315968631,-80.87207079335172
6.752234496,0.9995869300096909,-81.00688679237548
6.755094528,0.9995809856027119,-81.141417703933
6.757955072,0.9996014872562741,-81.27612583448409
6.760815104,0.9996473495594269,-81.41130691221329
6.763675136,0.9997156404967767,-81.54736100419458
6.76653568,0.9998018059240561,-81.68457272036152
6.769395712,0.999900769474414,-81.823120754471
6.772255744,1.0000062143992703,-81.96318997030761
6.775116288,1.0001116892670998,-82.10478978235504
6.77797632,1.0002104072479505,-82.24794959392189
6.780836864,1.0002960547324478,-82.39245145752574
6.783696896,1.0003635670455975,-82.5380711480439
6.786556928,1.0004086936508225,-82.6844751531594
6.789417472,1.0004283520370434,-82.8314576269353
6.792277504,1.0004214650398082,-82.97856295991326
6.795137536,1.0003885622321675,-83.12536079488923
6.79799808,1.0003314583944192,-83.27157441506692
6.800858112,1.0002538525121383,-83.41685920752627
6.803718144,1.0001605724870366,-83.56090336585386
6.806578688,1.0000573503920172,-83.70357932669174
6.80943872,0.9999509275457799,-83.84471820461461
6.812298752,0.999847594473741,-83.98444252856598
6.815159296,0.9997540346949013,-84.12273184430985
6.818019328,0.9996760855272789,-84.259838679507
6.82087936,0.9996187533425931,-84.39596379777288
6.823739904,0.9995854053664056,-84.53144718424018
6.826599936,0.99957831872679,-84.66670675348108
6.829459968,0.9995979395361295,-84.8020747011094
6.832320512,0.9996429417015832,-84.93790410205908
6.835180544,0.9997105674395543,-85.0745854155805
6.838040576,0.9997965427588617,-85.212406412461
6.84090112,0.9998956918362119,-85.35161146843993
6.843761152,1.0000015774188704,-85.49230988219249
6.846621184,1.0001076998165517,-85.63458759253105
6.849481728,1.000207246402808,-85.77837320573687
6.85234176,1.0002942295999546,-85.92350437776616
6.855201792,1.000362994122846,-86.06982171791344
6.858062336,1.0004093299162842,-86.21698036090798
6.860922368,1.000430298932404,-86.36467421746707
6.8637824,1.0004246183491525,-86.51250652174744
6.866642944,1.000392666976223,-86.66007878673283
6.869502976,1.0003362573139505,-86.8070391550406
6.872363008,1.0002590192615097,-86.95306549715524
6.875223552,1.0001658471790127,-87.09789038308593
6.878083584,1.000062347223674,-87.24133449767999
6.880943616,0.9999553606909737,-87.38327417879829
6.88380416,0.999851237436925,-87.52373226667756
6.886664192,0.999756612331612,-87.66275471441229
6.889524736,0.999677473013601,-87.80056312867052
6.892384768,0.9996187507593765,-87.93741063586825
6.8952448,0.999584204076146,-88.07358817746695
6.898105344,0.9995758529443394,-88.20949221519301
6.900965376,0.999594311101927,-88.34548260969989
6.903825408,0.9996384445776424,-88.4819608542834
6.906685952,0.9997054845478942,-88.61926614222196
6.909545984,0.9997913485801484,-88.75774029343499
6.912406016,0.9998904700434316,-88.89753096417233
6.91526656,0.9999966994627371,-89.03883687576408
6.918126592,1.0001035342028757,-89.18175023870162
6.920986624,1.0002041227381877,-89.32612513660753
6.923847168,1.000292107280227,-89.47193974914384
6.9267072,1.0003622322656482,-89.61890569051396
6.929567232,1.000409905474605,-89.7667563046679
6.932427776,1.0004321585990896,-89.91511967017702
6.935287808,1.0004277446019312,-90.0636707156283
6.93814784,1.0003966591208322,-90.21194850931384
6.941008384,1.0003411004141185,-90.35969259688308
6.943868416,1.0002642615673658,-90.50644510817935
6.946728448,1.0001712189919183,-90.65203859842502
6.949588992,1.000067603584808,-90.79625249138823
6.952449024,0.9999599249766548,-90.93894112677789
6.955309056,0.9998550715431233,-91.08009122709562
6.9581696,0.9997592726463782,-91.2198382535047
6.961029632,0.9996789689488578,-91.35833208447642
6.963889664,0.9996188433039436,-91.49585839526767
6.966750208,0.9995828646214646,-91.63272420612918
6.96961024,0.9995732212985614,-91.76926367540707
6.972470272,0.9995905271925084,-91.90587659660872
6.975330816,0.9996338616489749,-92.04297592414972
6.978190848,0.9997003346284136,-92.18086812216625
6.98105088,0.9997858734878006,-92.31988553031034
6.983911424,0.9998849724365667,-92.46028331017224
6.986771456,0.9999916638363918,-92.60220590347343
6.989632,1.000099182191296,-92.74567040887966
6.992492032,1.000200746715368,-92.89067416997783
6.995352064,1.0002900487619018,-93.03708186601548
6.998212608,1.0003614672814634,-93.18469398537759
7.00107264,1.0004104297274872,-93.33320559344133
7.003932672,1.0004340681216028,-93.48222842026762
7.006793216,1.0004308059150695,-93.63147373824854
7.009653248,1.0004008404611933,-93.78047735394246
7.01251328,1.0003460028462277,-93.92891314537738
7.015373824,1.0002696799323312,-94.07640758518846
7.018233856,1.0001767761719478,-94.22270188680265
7.021093888,1.0000729235703136,-94.36762108787
7.023954432,0.9999646927724001,-94.51103889088867
7.026814464,0.9998588207655293,-94.65291457770421
7.029674496,0.9997621640664262,-94.79337047328515
7.03253504,0.9996804229662446,-94.93257636279945
7.035395072,0.9996189424411864,-95.07072021461782
7.038255104,0.9995815703738701,-95.20819156755198
7.041115648,0.9995706469313963,-95.34536710872545
7.04397568,0.9995868373021379,-95.48258509601746
7.046835712,0.9996291303142996,-95.62025496764916
7.049696256,0.9996949222278374,-95.75872710599094
7.052556288,0.9997801667726804,-95.8982839305928
7.05541632,0.9998793250849501,-96.03925104662628
7.058276864,0.999986427961448,-96.18169850150761
7.061136896,1.0000946560978665,-96.32571762454363
7.063996928,1.0001972034359898,-96.47131005196303
7.066857472,1.0002876937650407,-96.61833685833739
7.069717504,1.0003604264966954,-96.76653670719853
7.072577536,1.0004109486192136,-96.91563903926543
7.07543808,1.0004360403147525,-97.06535804757314
7.078298112,1.0004339132720892,-97.2152388344762
7.081158144,1.0004050095513883,-97.36492109595414
7.084018688,1.0003510810069658,-97.5140415684652
7.08687872,1.0002752650141664,-97.66223967379528
7.089738752,1.0001824298783546,-97.80924977114529
7.092599296,1.0000784126397404,-97.9548742726922
7.095459328,0.9999696076557144,-98.09898044233925
7.098319872,0.9998630468701724,-98.24154959513355
7.101179904,0.9997651392328968,-98.38266866516574
7.104039936,0.9996821248407831,-98.5224882286145
7.10690048,0.9996191410061596,-98.66131998465319
7.109760512,0.9995803700611532,-98.79941187108098
7.112620544,0.999568111045861,-98.93712123558342
7.115481088,0.9995830613379935,-99.07492237446068
7.11834112,0.9996243664444664,-99.21313907477685
7.121201152,0.999689427744085,-99.35214190852939
7.124061696,0.9997743014911102,-99.49223396035647
7.126921728,0.9998735945262214,-99.63374360220358
7.12978176,0.999981038427612,-99.77671149768757
7.132642304,1.000089839972526,-99.92128426154592
7.135502336,1.0001934465072875,-100.06740736773406
7.138362368,1.0002851638624404,-100.21496830637454
7.141222912,1.0003593278659297,-100.36375055127262
7.144082944,1.0004113364261566,-100.51348783326291
7.146942976,1.0004378242931833,-100.6637727568667
7.14980352,1.0004370781271437,-100.81431764918902
