freq,mag,phase
6.0,1.0000081307715671,-88.33783014545001
6.042328064,1.000009822635909,-90.33090039037566
6.084656128,1.0000102193135767,-92.3247579737455
6.126984192,1.0000107302635335,-94.31930940014564
6.169312256,1.0000109306645704,-96.31457665224285
6.21164032,1.0000112701928503,-98.31042636479341
6.253968384,1.0000113547882872,-100.3068971199449
6.296296448,1.0000114394625828,-102.30394554413813
6.338624512,1.0000115065969415,-104.30151112994764
6.380952576,1.0000113691426966,-106.2995835827641
6.42328064,1.000011187029505,-108.29808034829908
6.465608704,1.000010971256549,-110.29700613294419
6.507936256,1.0000105648162807,-112.29633030565397
6.55026432,1.0000101563780146,-114.29597424311018
6.592592384,1.000009636036696,-116.29589469376937
6.634920448,1.0000089948876496,-118.29606390005347
6.677248512,1.0000084234862017,-120.29647097036981
6.719576576,1.0000077425397,-122.29704178913727
6.76190464,1.0000070068300846,-124.29776152301774
6.804232704,1.0000062194727395,-126.29855187045929
6.846560768,1.0000053678568748,-128.2994233880835
6.888888832,1.0000045415750083,-130.30030843371836
6.931216896,1.0000036979364972,-132.30120020677387
6.97354496,1.0000027979446147,-134.30196652445403
7.015873024,1.0000019276731287,-136.30267254564717
7.058201088,1.000001087029731,-138.303277073474
7.100529152,1.0000002464304367,-140.30365863275418
7.142857216,0.9999994623142279,-142.3038703697566
7.18518528,0.9999986871484052,-144.30376410183032
7.227513344,0.9999979971225839,-146.30341588444492
7.269841408,0.9999972459800726,-148.3027138351579
7.312169472,0.9999966354477412,-150.30164391084867
7.354497536,0.9999960581423071,-152.30017228169464
7.3968256,0.9999956017128875,-154.29825707469257
7.439153664,0.9999952076695577,-156.2958669193852
7.481481728,0.9999948248388922,-158.2929798483489
7.52380928,0.9999945991857419,-160.28952336111124
7.566137344,0.9999944510118048,-162.28548461106593
7.608465408,0.9999943321974649,-164.2808051908495
7.650793472,0.9999944255121425,-166.2754854325136
7.693121536,0.9999945706530617,-168.2694830252907
7.7354496,0.9999947853091643,-170.2627399119663
7.777777664,0.9999950141451251,-172.25526172540776
7.820105728,0.9999953815277719,-174.24697902433405
7.862433792,0.9999958420185558,-176.23784894381782
7.904761856,0.999996415156021,-178.22790360474045
7.94708992,0.9999970431104696,179.7829415369799
7.989417984,0.999997649219599,177.79472378369758
8.031746048,0.9999983907878123,175.80744507035516
8.074074112,0.9999992175448268,173.82117786667493
8.116402176,0.9999999989409805,171.83588370521733
8.15873024,1.0000007722167976,169.8516387603443
8.201058304,1.00000169778144,167.86847623238162
8.243386368,1.0000025170766311,165.88640509454635
8.285714432,1.0000035848909257,163.9054294748523
8.328042496,1.0000044350177175,161.92563570616838
8.37037056,1.0000052523558816,159.94701812160162
8.412698624,1.0000061392043862,157.9695593090968
8.455026688,1.0000069556701712,155.99337556043932
8.497354752,1.0000076862294667,154.0184321702007
8.539682304,1.0000084017168587,152.04477013652127
8.582010368,1.0000090504744399,150.07239142990045
8.624338944,1.000009663107152,148.1013505924687
8.666667008,1.0000101889638977,146.13163649147256
8.708995072,1.0000106313187094,144.1633029530537
8.751323136,1.0000109961699946,142.1963612079707
8.7936512,1.0000113295595023,140.2307900035863
8.835979264,1.0000114402453693,138.2666659959033
8.878307328,1.0000115620489043,136.3040029742296
8.920635392,1.0000115301027477,134.34276883734034
8.962963456,1.0000114534821742,132.3830190430926
9.005290496,1.0000113098201027,130.424765030979
9.04761856,1.0000109235066263,128.46801425611721
9.089946624,1.0000105178962846,126.51279562643103
9.132274688,1.000010125731523,124.55910404573712
9.174602752,1.0000095107564195,122.60697346026005
9.216930816,1.0000088438059471,120.65639848484638
9.25925888,1.0000081861438774,118.70738873866586
9.301586944,1.000007401361367,116.75997949377127
9.343915008,1.0000065318860716,114.81414916074048
9.386243072,1.0000056582764971,112.86994855113765
9.428571136,1.0000047685775622,110.92734269066555
9.4708992,1.0000037598896243,108.98634849413945
9.513227264,1.0000028324783283,107.04698535859477
9.555555328,1.000001826528902,105.10927163113307
9.597883392,1.0000009364268656,103.17317067875284
9.640211456,0.999999924577552,101.23872558959891
9.68253952,0.9999990211837806,99.30592177088809
9.724867584,0.9999980963788282,97.37478385325434
9.767195648,0.9999972418133929,95.4452828133896
9.809523712,0.9999964920714669,93.51743070770473
9.851851776,0.9999956857807046,91.59122627980065
9.89417984,0.9999951062591267,89.66668144296771
9.936507904,0.9999944592843909,87.74378997062635
9.978835968,0.9999939814393851,85.82255015924794
10.021164032,0.9999935796441847,83.90294583922324
10.063492096,0.9999932466374228,81.98499419820074
10.10582016,0.999993067818174,80.06867704668198
10.148148224,0.9999929573829225,78.15399663195831
10.190476288,0.9999930051078428,76.24095492475362
10.232804352,0.9999931062671058,74.32953349407092
10.275132416,0.9999933103970302,72.41972250603453
10.31746048,0.9999936398320097,70.51153011894144
10.359788544,0.9999940786483489,68.60494209454755
10.402116608,0.9999945843072496,66.69992338306828
10.444444672,0.9999952658681895,64.79652691218018
10.486772736,0.9999959433960784,62.894685864519516
10.5291008,0.9999967725285295,60.99442579464491
10.571428864,0.9999975800296348,59.09570810780093
10.613756928,0.9999984873944161,57.19854916636576
10.656084992,0.9999995075488068,55.302919409084865
10.698413056,1.0000006009037026,53.40880300764519
10.74074112,1.000001605585308,51.516201969245174
10.783069184,1.0000027397248847,49.625105426406684
10.825397248,1.000003783903274,47.735478559777924
10.867725312,1.0000049371267181,45.84733247344665
10.910053376,1.000005956629488,43.96064217933642
10.95238144,1.0000070825261915,42.07538112613215
10.994709504,1.0000081165455972,40.19155474293663
11.037036544,1.0000091201803238,38.309128041927316
11.079364608,1.0000099634835045,36.428101226637175
11.121692672,1.0000108260615816,34.54844470786114
11.164020736,1.000011539470151,32.67016416070213
11.2063488,1.0000122757982342,30.793220695856864
11.248676864,1.0000128522475558,28.917613257728416
11.291004928,1.00001324819203,27.043310993287943
11.333332992,1.000013651313866,25.17029208570517
11.375661056,1.000013872807557,23.298550261227565
11.41798912,1.0000140344518074,21.428058544265923
11.460317184,1.0000140227516932,19.55881926066194
11.502645248,1.000013877106384,17.69076730342068
11.544973312,1.0000136429849351,15.823930296951557
11.587301376,1.000013373812346,13.958277464237609
11.62962944,1.0000128829679216,12.093757092480104
11.671957504,1.0000122573723678,10.23038086001759
11.714285568,1.000011576463512,8.368117318710192
11.756613632,1.0000107099050992,6.506939710736337
11.798941696,1.0000098920448242,4.6468568918027895
11.84126976,1.0000089266496819,2.787801771262159
11.883597824,1.000007804405025,0.9297631678918353
11.925925888,1.000006800506323,-0.9272678900207745
11.968253952,1.0000055867508335,-2.7833066186010127
12.010582016,1.0000043216023224,-4.638412109303171
12.05291008,1.0000031812722459,-6.492564368212828
12.095238144,1.0000018497546748,-8.345807859333052
12.137566208,1.000000654418872,-10.198189106642118
12.179894272,0.9999994885109011,-12.049704333360951
12.222222336,0.999998338192158,-13.900384143433245
12.2645504,0.9999971375651842,-15.750241204828187
12.306878464,0.9999960133769412,-17.599321970341965
12.349206528,0.9999950470081275,-19.447658976323897
12.391534592,0.9999940791467963,-21.295265084455146
12.433862656,0.999993230491644,-23.142167411097027
12.47619072,0.9999924028639411,-24.98838518296216
12.518518784,0.9999917819617381,-26.8339512966556
12.560846848,0.9999912519099698,-28.67889237672328
12.603174912,0.9999907870931503,-30.523255866723478
12.645502976,0.9999905989209793,-32.367051652583385
12.68783104,0.9999904735649997,-34.210280503725684
12.730159104,0.9999904564838282,-36.05302072904932
12.772487168,0.9999906430714813,-37.89524781139097
12.814815232,0.9999908947423768,-39.73704162048237
12.857143296,0.9999913243579078,-41.57840286927505
12.89947136,0.9999918121658626,-43.419353329892715
12.941799424,0.9999925721021867,-45.259935827541184
12.984127488,0.9999933789450577,-47.10016521092935
13.026454528,0.9999943310332199,-48.94009540963849
13.068782592,0.99999532076688,-50.77971872880747
13.111110656,0.9999964043287777,-52.61908904104648
13.15343872,0.9999976944917284,-54.45822281083679
13.195766784,0.9999990239372508,-56.29715409898724
13.238094848,1.0000003864971916,-58.135925118092445
13.280422912,1.0000017686661815,-59.97453352404725
13.322750976,1.0000031011204527,-61.81301677262957
13.36507904,1.0000046191316663,-63.65141385053236
13.407407104,1.0000060131691477,-65.48974432254342
13.449735168,1.0000074740939415,-67.32804736068418
13.492063232,1.000008911017707,-69.16633715932655
13.534391296,1.0000102067075678,-71.00463392476355
13.57671936,1.0000115330184902,-72.84298730779525
13.619047424,1.0000127633677045,-74.6814172345109
13.661375488,1.0000138348170846,-76.51994071952561
13.703703552,1.0000149522404393,-78.3585939068184
13.746031616,1.0000158351120196,-80.19739299133691
13.78835968,1.0000166068116079,-82.03639386863158
13.830687744,1.0000172444801012,-83.87558764934393
13.873015808,1.0000177323051833,-85.7150092617848
13.915343872,1.000018083853997,-87.5547042418358
13.957671936,1.0000183175333668,-89.39467692667725
14.0,1.0000183096113526,-91.23497335007552
