freq,mag,phase
6.0,1.0001337593966273,33.877525071295516
6.006339072,1.0000058342395945,33.720382691772095
6.012678144,0.999877427448397,33.56504275852406
6.019017216,0.9997561735453065,33.41141483909607
6.0253568,0.9996492192060398,33.25937506433558
6.031695872,0.9995625603755374,33.10863161413267
6.038034944,0.9995012311050209,32.9589380084314
6.044374016,0.9994687976873243,32.80990332749526
6.050713088,0.9994671310604284,32.66108185275148
6.05705216,0.9994964426716225,32.51204395426582
6.063391232,0.9995549001381208,32.36241710132233
6.069730816,0.9996392083253984,32.2117781740685
6.076069888,0.999744567914441,32.05982770019494
6.08240896,0.9998649142811367,31.906355008405704
6.088748032,0.9999932262076885,31.751072882769655
6.095087104,1.0001222966453602,31.59407134609578
6.101426176,1.0002446303593986,31.43530535160137
6.107765248,1.0003530993312844,31.27491633738233
6.114104832,1.0004417022833496,31.11319646303458
6.120443904,1.0005050464911607,30.950351141228214
6.126782976,1.0005396853206574,30.786899610322106
6.133122048,1.0005435532185623,30.623133730002603
6.13946112,1.0005164286766968,30.459529256719595
6.145800192,1.000459901997004,30.29647821249928
6.152139264,1.0003769888744167,30.134406687131104
6.158478848,1.0002726218993234,29.973613826746018
6.16481792,1.000152775804618,29.814368107897312
6.171156992,1.000024338132588,29.656832102680912
6.177496064,0.9998945969703262,29.50105701148482
6.183835136,0.9997711172233431,29.3470719277125
6.190174208,0.9996608828827059,29.194655240487148
6.19651328,0.9995703861157362,29.04363974539387
6.202852864,0.9995047553692749,28.89366034920489
6.209191936,0.9994677044203237,28.744491122671256
6.215531008,0.9994616596377165,28.59550419614286
6.22187008,0.9994866604414419,28.446453921033235
6.228209152,0.9995415409625795,28.29679572400458
6.234548224,0.9996228846537061,28.146196121821152
6.240887296,0.9997263620178398,27.994374678629942
6.24722688,0.999845781846829,27.840921142733286
6.253565952,0.999974302137264,27.68581976743855
6.259905024,1.0001046105200722,27.528880009660213
6.266244096,1.0002292316691241,27.37016657585268
6.272583168,1.0003408837519465,27.209821597397212
6.27892224,1.000433220753882,27.048082580741692
6.285261312,1.0005009452961822,26.885192945692133
6.291600384,1.0005401866876342,26.721567670336565
6.297939968,1.0005485504154539,26.557621996500455
6.30427904,1.0005256404642071,26.3937026492175
6.310618112,1.0004727379737104,26.23039787234056
6.316957184,1.0003928233087185,26.067911576447845
6.323296256,1.0002905679444212,25.906716652918966
6.329635328,1.0001716974590127,25.747071942633458
6.3359744,1.0000430963066906,25.589076500517947
6.342313984,0.9999122021008788,25.4329186408157
6.348653056,0.9997864571207847,25.27852419627151
6.354992128,0.9996731067351369,25.125733140757163
6.3613312,0.9995787138057093,24.97440699157013
6.367670272,0.9995087174434272,24.82421953878105
6.374009344,0.9994672382639966,24.674789997269375
6.380348416,0.999456476530855,24.5257037180914
6.386688,0.999477262792476,24.376596122768657
6.393027072,0.9995283806676485,24.226925403696903
6.399366144,0.999606772294393,24.07635236208419
6.405705216,0.9997080695010518,23.924586072186923
6.412044288,0.9998264277035301,23.77125244577871
6.41838336,0.9999550485316607,23.616240242342815
6.424722432,1.0000864884290808,23.459380039511714
6.431062016,1.000213261977754,23.300763685349
6.437401088,1.000328069742679,23.140426810171537
6.44374016,1.0004242706413564,22.978673289979707
6.450079232,1.0004963108349256,22.815711807497692
6.456418304,1.0005401151509918,22.65192902995007
6.462757376,1.0005530523746171,22.487785276313826
6.469096448,1.000534586401758,22.323648776743056
6.475436032,1.0004854448158649,22.159985161518193
6.481775104,1.0004086222280257,21.99713977396741
6.488114176,1.0003084723592535,21.835554246776766
6.494453248,1.0001907972860353,21.67546023462911
6.50079232,1.000062233201127,21.517044223894736
6.507131392,0.999930185601794,21.360446176898677
6.513470464,0.9998023377084229,21.205610005273442
6.519810048,0.9996859347251708,21.05252182786519
6.52614912,0.999587750735445,20.900851640554468
6.532488192,0.9995134340069487,20.75039236038148
6.538827264,0.9994673659675245,20.600760234464442
6.545166336,0.9994519740594258,20.451546160864034
6.551505408,0.9994683581005658,20.30231205337403
6.55784448,0.9995155519241983,20.152662035566138
6.564184064,0.9995908496156104,20.002133997935477
6.570523136,0.9996898632600721,19.85042634903841
6.576862208,0.9998070713914161,19.69717608413106
6.58320128,0.9999356147818665,19.54222876978225
6.589540352,1.0000680410199347,19.385478305753296
6.595879424,1.000196863833598,19.226887444129442
6.602218496,1.0003146762655115,19.066624068381195
6.60855808,1.0004147744024594,18.90483668351722
6.614897152,1.0004911174150322,18.741796333876884
6.621236224,1.000539540029319,18.57790551774759
6.627575296,1.0005571818230228,18.413553479616148
6.633914368,1.0005430442187164,18.249137478815054
6.64025344,1.00049785837494,18.085129728139922
6.646592512,1.000424255282743,17.921957104249103
6.652932096,1.0003263894605134,17.75996695065411
6.659271168,1.0002099274662726,17.59944508630302
6.66561024,1.0000815390923135,17.44057815098474
6.671949312,0.9999486118963709,17.283534961121884
6.678288384,0.9998186860813922,17.128314421379205
6.684627456,0.9996993837897993,16.97480630586771
6.690966528,0.9995973939790808,16.822818089627333
6.697306112,0.9995187511140825,16.67206428401549
6.703645184,0.999467941921019,16.522229512769886
6.709984256,0.9994478246765329,16.372865526540306
6.716323328,0.9994597954220832,16.223551459154514
6.7226624,0.9995029525479099,16.07383896479083
6.729001472,0.9995749951459474,15.92335504888452
6.735340544,0.9996716238756386,15.77167027975997
6.741680128,0.9997874753934896,15.618511371272419
6.7480192,0.9999158144857875,15.463665356389985
6.754358272,1.0000492451001417,15.307000683141363
6.760697344,1.0001800461485255,15.148489313636356
6.767036416,1.0003007920354088,14.988238760388402
6.773375488,1.0004045704243194,14.826426490057692
6.77971456,1.0004853257725335,14.663379463057243
6.786053632,1.000538391670138,14.499319495393554
6.792393216,1.0005607050751792,14.334779146078194
6.798732288,1.000551106018671,14.170145253715887
6.80507136,1.000510028420946,14.005835345699545
6.811410432,1.0004397612294529,13.842275981470618
6.817749504,1.0003444514694444,13.6798621983735
6.824088576,1.000229329330228,13.518889151981515
6.830427648,1.000101261376772,13.359591437295078
6.836767232,0.9999674195355361,13.202084385896844
6.843106304,0.9998355702214838,13.046428196389195
6.849445376,0.9997132694713158,12.892530342041823
6.855784448,0.9996076017403707,12.740193700279624
6.86212352,0.999524632292118,12.589141728188093
6.868462592,0.9994691326057535,12.439068531855556
6.874801664,0.9994443373229759,12.289508098290295
6.881141248,0.9994516101229999,12.140092022605424
6.88748032,0.9994907453386267,11.990405399651252
6.893819392,0.9995592771360472,11.839893826070252
6.900158464,0.9996535518076896,11.688234153158225
6.906497536,0.9997678334759046,11.535199564987849
6.912836608,0.9998957417952689,11.380432911225576
6.91917568,1.0000299257957876,11.223834142405627
6.925515264,1.0001627087246787,11.065427835028231
6.931854336,1.0002863223811431,10.905206799909127
6.938193408,1.000393869991468,10.743402080917114
6.94453248,1.0004788829704008,10.580235761249547
6.950871552,1.0005366547353318,10.41609117755865
6.957210624,1.000563879067949,10.251336421190208
6.963549696,1.0005588157501042,10.086436606981335
6.96988928,1.000521816754408,9.921799057724483
6.976228352,1.0004550695211536,9.757866186174372
6.982567424,1.0003622816923887,9.595033583222886
6.988906496,1.000248828944373,9.433635366971615
6.995245568,1.0001211547332125,9.273856179182248
7.00158464,0.9999866284178607,9.11590479434751
7.007923712,0.9998529863770377,8.95981318893698
7.014263296,0.9997278350064471,8.805504477257472
7.020602368,0.9996184180065063,8.652808688274316
7.02694144,0.9995310892363726,8.501436794997286
7.033280512,0.9994709625513115,8.35113850302594
7.039619584,0.9994412720883763,8.20140270816528
7.045958656,0.9994439513953809,8.051910877482198
7.052297728,0.9994787133522448,7.902099844976471
7.058637312,0.9995438620962013,7.751605261029372
7.064976384,0.9996353635625206,7.600061394210031
7.071315456,0.9997480766806829,7.447032492942908
7.077654528,0.9998755258330954,7.292386530691992
7.0839936,1.0000103742321873,7.135883023083945
7.090332672,1.0001448339348122,6.977520514467175
7.096671744,1.0002713720122793,6.817355311504144
7.103011328,1.0003824566843478,6.6555314610242124
7.1093504,1.0004719014696568,6.492304314352326
7.115689472,1.0005344114785297,6.328008151139679
7.122028544,1.0005663122841493,6.1630732927691545
7.128367616,1.0005661321825634,5.997934200827244
7.134706688,1.000533427613477,5.8329786980065235
7.14104576,1.0004702787105075,5.668679466882777
7.147385344,1.0003802213560704,5.505401028298628
7.153724416,1.0002684244558606,5.343565672334792
7.160063488,1.0001413581578882,5.183339819461176
7.16640256,1.0000061685108936,5.024926354222519
7.172741632,0.9998707514693259,4.868378311364293
7.179080704,0.9997428804895699,4.713632250960723
7.185419776,0.9996298178832329,4.5605522682830815
7.19175936,0.9995382779091546,4.408889410504282
7.198098432,0.9994733369512966,4.258296596879386
7.204437504,0.9994388550987782,4.108407907212385
7.210776576,0.9994366623487182,3.9587544599330307
7.217115648,0.9994671737703344,3.8089126847454002
7.22345472,0.9995285404269157,3.658393886145013
7.229793792,0.9996172603099119,3.506864344906163
7.236133376,0.9997282383735054,3.3539448410902812
7.242472448,0.9998549587944661,3.1993740177737697
7.24881152,0.9999904034403315,3.042932026351723
7.255150592,1.0001266402947677,2.8846608268029303
7.261489664,1.0002557879359897,2.7245198054744053
7.267828736,1.0003704873647223,2.562735472513313
7.274167808,1.0004641983188018,2.399401211235688
7.28050688,1.0005314392591578,2.235046220715596
7.286846464,1.0005684696098762,2.069908399048756
7.293185536,1.0005729636653087,1.9044835338885426
7.299524608,1.0005447281387103,1.7392047580297783
7.30586368,1.0004852791805348,1.5745250022995763
7.312202752,1.0003980536147123,1.410865668468206
7.318541824,1.0002881468061562,1.248532337277682
7.324880896,1.0001618444263012,1.0878309723881836
7.33122048,1.0000262334618253,0.9289520457913547
7.337559552,0.9998891613969063,0.7719242333023669
7.343898624,0.9997585284125403,0.6167596872224936
7.350237696,0.9996419728275144,0.463304012144582
7.356576768,0.9995460212141366,0.3112893690555142
7.36291584,0.9994762390222512,0.1604486169973734
7.369254912,0.9994368716048512,0.010344345423561609
7.375594496,0.9994298621223663,-0.1394648563558785
7.381933568,0.999455981312293,-0.28938923983929044
7.38827264,0.9995133996338036,-0.43988185821126635
7.394611712,0.9995991234807542,-0.5914140081964329
7.400950784,0.9997081202400137,-0.7442744692176395
7.407289856,0.9998341712887233,-0.898789173025506
7.413628928,0.9999699226593806,-1.0550781104433753
7.419968512,1.0001077008420174,-1.2132972289806663
7.426307584,1.000239590306717,-1.3733753073951993
7.432646656,1.0003579533270908,-1.535224994800162
7.438985728,1.0004559272812015,-1.698561302773705
7.4453248,1.0005279984764681,-1.8630558031989244
7.451663872,1.0005698847417517,-2.0283592183307513
7.458002944,1.0005793350073682,-2.194057472978052
7.464342528,1.0005555610154542,-2.3596505867386672
7.4706816,1.000500050226663,-2.5247059071044853
7.477020672,1.000415883938327,-2.688803901474943
7.483359744,1.000307959546402,-2.8515813793851454
7.489698816,1.0001825372154145,-3.012739274139525
7.496037888,1.0000465694181717,-3.172132464482307
7.50237696,0.999907950328468,-3.329623706581635
7.508716544,0.9997747856326188,-3.485235723802074
7.515055616,0.9996547316679277,-3.6391127591216854
7.521394688,0.9995544770625823,-3.791461358389307
7.52773376,0.9994799221446721,-3.9425893303888055
7.534072832,0.9994354446896037,-4.092922374197187
7.540411904,0.9994236408335684,-4.242877086142174
7.546750976,0.9994451064916527,-4.392879446254897
7.55309056,0.9994985608682383,-4.543410646879053
7.559429632,0.9995812454498941,-4.694902003757022
7.565768704,0.9996880960769825,-4.847709125019646
7.572107776,0.9998132049213677,-5.002141416560157
7.578446848,0.9999492318386232,-5.158361205755008
7.58478592,1.0000885151751495,-5.316463412675861
7.591124992,1.0002228881144661,-5.47651893234045
7.597464576,1.000344744970379,-5.638363323227117
7.603803648,1.0004469900429773,-5.801769876651566
7.61014272,1.0005238644133314,-5.9663863494674
7.616481792,1.000570719409937,-6.131886582213348
7.622820864,1.0005852292423816,-6.2977871800363125
7.629159936,1.0005659247981178,-6.463725654293792
7.635499008,1.0005145947635432,-6.6291495302035
7.641838592,1.000433601273525,-6.793661875175264
7.648177664,1.0003279752434635,-6.9569143436285605
7.654516736,1.000203526211445,-7.118585861779769
7.660855808,1.0000672762544924,-7.278464944657297
7.66719488,0.9999273821986235,-7.436428540157621
7.673533952,0.9997917295724847,-7.5925250164141955
7.679873024,0.9996680369615858,-7.746798306792826
7.686212608,0.9995635571089196,-7.899513034897016
7.69255168,0.9994841633513284,-8.050959307303634
7.698890752,0.999434691201788,-8.20151577277149
7.705229824,0.9994177054332333,-8.351608284063213
7.711568896,0.9994345086405884,-8.501724573938594
7.717907968,0.999484050726789,-8.652294244683082
7.72424704,0.9995633477708367,-8.803760938351456
7.730586624,0.9996680024676998,-8.956508144427428
7.736925696,0.999791967625172,-9.11084502982432
7.743264768,0.9999280498322285,-9.266999465239577
7.74960384,1.0000687172776248,-9.425070540684134
7.755942912,1.0002056005711142,-9.585075152878469
7.762281984,1.0003308838261176,-9.746895173261386
7.768621056,1.0004374265929106,-9.910308594967486
7.774960128,1.0005191432336962,-10.075042194941911
7.781299712,1.000571138522362,-10.240722336504405
7.787638784,1.000590567123037,-10.406923634225068
7.793977856,1.0005762753425174,-10.57313608613377
7.800316928,1.0005290107464435,-10.738943356220835
7.806656,1.0004514363024655,-10.903909886952736
7.812995072,1.0003480510487464,-11.06761043787617
7.819334144,1.000224684607668,-11.229797003065524
7.825673728,1.0000885990584671,-11.390189014365257
7.8320128,0.9999472725745352,-11.548627565497853
7.838351872,0.9998091910650155,-11.705201563490634
7.844690944,0.9996821029571739,-11.859904192194907
7.851030016,0.9995733277845397,-12.013018151047032
7.857369088,0.9994892133510715,-12.164759396081957
7.86370816,0.9994345284443501,-12.315571243084099
7.870047744,0.9994125452216034,-12.465864496039798
7.876386816,0.9994244279362318,-12.616067382895956
7.882725888,0.9994696186121226,-12.766677256893104
7.88906496,0.9995455163837026,-12.918146999798921
7.895404032,0.9996477465362297,-13.070849459709178
7.901743104,0.9997705013342539,-13.22510643296606
7.908082176,0.9999066377216307,-13.381171665471603
7.91442176,1.0000484437226898,-13.539155386095858
7.920760832,1.0001877419332443,-13.699129392352846
7.927099904,1.0003164808240255,-13.860910777290174
7.933438976,1.0004272552545967,-14.024407403965004
7.939778048,1.0005136967919424,-14.189241526651884
7.94611712,1.0005709629000499,-14.355109036436907
7.952456192,1.0005954517508624,-14.521520816255787
7.958795776,1.000586044266568,-14.688056586836215
7.965134848,1.0005431676265877,-14.85423676835086
7.97147392,1.0004691064468645,-15.019656472907654
7.977812992,1.000368057982831,-15.183847963870514
7.984152064,1.000246159360163,-15.346545586564512
7.990491136,1.000110186622968,-15.507392138591973
7.996830208,0.9999677984050247,-15.66639696939441
8.003169792,0.9998273747062262,-15.823433794639271
8.009508864,0.9996968346749534,-15.978605536834195
8.015847936,0.9995838216723091,-16.13208632738824
8.022187008,0.9994949463764493,-16.28416509276443
8.02852608,0.9994350677568428,-16.43524659529426
8.034865152,0.9994078063643442,-16.58570719527568
8.041204224,0.999414713887498,-16.736047293772632
8.047543808,0.9994554658226632,-16.886723863228955
8.05388288,0.9995278471937946,-17.03816254605122
8.060221952,0.9996275507148746,-17.19082682966967
8.066561024,0.9997489322745442,-17.345046965120876
8.072900096,0.9998848794427474,-17.50101397026145
8.079239168,1.0000276266471715,-17.65894469435555
8.08557824,1.0001692241557487,-17.8188300533169
8.091917824,1.0003012600421162,-17.980617327858774
8.098256896,1.0004162601626423,-18.144128551819488
8.104595968,1.000507683696681,-18.30906480663404
8.11093504,1.0005700336536127,-18.47511618428863
8.117274112,1.0005997640699977,-18.641773989897718
8.123613184,1.000595387261789,-18.808652238266454
8.129952256,1.0005569153103862,-18.975230259842025
8.13629184,1.0004866484896706,-19.141039036203075
8.142630912,1.0003883300506375,-19.30572518876163
8.148969984,1.0002678532928932,-19.46892375121288
8.155309056,1.000132055044853,-19.630337178347794
8.161648128,0.9999887071893191,-19.789851347209556
8.1679872,0.9998461013400995,-19.947372029333515
8.174326272,0.9997122913492356,-20.102973433059617
8.180665856,0.9995950660334874,-20.25687823698424
8.187004928,0.9995012302748834,-20.409302733711083
8.193344,0.9994361708033749,-20.560693230238556
8.199683072,0.9994035906519901,-20.71135049859963
8.206022144,0.9994054811853541,-20.86179653687701
8.212361216,0.9994416820116382,-21.012559605129375
8.218700288,0.9995102877761873,-21.16402748637425
8.225039872,0.9996072344954564,-21.316636992822062
8.231378944,0.9997268769505371,-21.470761842438616
8.237718016,0.9998625757929089,-21.626661688999317
8.244057088,1.0000064170120655,-21.78451094266229
8.25039616,1.0001501428698578,-21.94437066520473
8.256735232,1.0002854178834422,-22.106130680597325
8.263074304,1.0004046633732073,-22.26968669586813
8.269413376,1.0005007640801247,-22.43473809962436
8.27575296,1.0005685155372241,-22.60094058321522
8.282092032,1.000603718801815,-22.767844555905793
8.288431104,1.0006043418959067,-22.93503772180757
8.294770176,1.0005704976895355,-23.10198243242293
8.301109248,1.0005038886150182,-23.26825507358906
8.30744832,1.0004084585979915,-23.433437973604697
8.313787392,1.0002898069349586,-23.59713401464515
8.320126976,1.000154407904508,-23.75907460879287
8.326466048,1.000010213876487,-23.919091530754315
8.33280512,0.9998653940360838,-24.07716008015592
8.339144192,0.9997284148134191,-24.23327999470076
8.345483264,0.9996069223389344,-24.38758150491189
8.351822336,0.9995083350885717,-24.540388486598577
8.358161408,0.999437898899495,-24.692036199996803
8.364500992,0.9994000339903176,-24.842901278333628
8.370840064,0.9993966109455112,-24.993512725689264
8.377179136,0.9994282648608015,-25.1443079147437
8.383518208,0.9994929230448425,-25.295801217612606
8.38985728,0.9995868852967197,-25.44840370940597
8.396196352,0.9997047898930379,-25.602462567784606
8.402535424,0.9998399477181946,-25.758311546066434
8.408875008,0.9999845841607802,-25.916050757616038
8.41521408,1.0001303368620382,-26.075861165244497
8.421553152,1.0002689545822705,-26.237612965873666
8.427892224,1.0003922564065792,-26.401207883786853
8.434231296,1.0004933110039624,-26.56632429782505
8.440570368,1.0005662732067273,-26.7327003388368
8.44690944,1.000606928475019,-26.89985345105056
8.453249024,1.0006127560796028,-27.067347582895028
8.459588096,1.0005837448028412,-27.23468725292303
8.465927168,1.0005212405246613,-27.40140474410701
8.47226624,1.0004287856211826,-27.567076267095306
8.478605312,1.000311909408989,-27.731295826583075
8.484944384,1.000177118003005,-27.89379705440534
8.491283456,1.0000320996865284,-28.054383497607553
8.49762304,0.9998854569071289,-28.212940492007483
8.503962112,0.9997451327201791,-28.36951699000466
8.510301184,0.9996196409759605,-28.524287322403946
8.516640256,0.99951610069407,-28.677455810586196
8.522979328,0.9994403297839298,-28.82942293393609
8.5293184,0.9993969794327572,-28.980527708313115
8.535657472,0.9993883965423884,-29.13131911960815
8.541997056,0.999414973641495,-29.28219741876281
8.548336128,0.999475573181023,-29.433726297554042
