freq,mag,phase
6.0,1.0015852032161576,-4.253170069317434
6.014414336,1.0015434550526527,-4.745082372898551
6.028828672,1.001433526874105,-5.2363439359711865
6.043243008,1.0012598034306388,-5.72609905327708
6.057657856,1.0010301204077552,-6.213660646932354
6.072072192,1.0007546910453944,-6.698439559951636
6.086486528,1.0004452010413998,-7.179898552089962
6.100900864,1.0001155327471372,-7.657758232065831
6.1153152,0.9997801474669771,-8.131793956829762
6.129729536,0.9994540519478604,-8.602099105238167
6.144144384,0.999151556231064,-9.068769408963618
6.15855872,0.9988861367485325,-9.53220562883576
6.172973056,0.9986699073136088,-9.992970272340362
6.187387392,0.9985122736117723,-10.451675542075932
6.201801728,0.9984204741111484,-10.909085377270625
6.216216064,0.9983986687866988,-11.36598581126386
6.2306304,0.9984478072637211,-11.82331790666986
6.245045248,0.9985662071342756,-12.281857986659656
6.259459584,0.9987481325693045,-12.742511633000838
6.27387392,0.998986245068024,-13.205926032233387
6.288288256,0.9992695629431919,-13.672691777919628
6.302702592,0.9995859371595269,-14.14340631336211
6.317116928,0.9999210953613498,-14.618249573951108
6.331531776,1.0002604769095593,-15.097457994558892
6.345946112,1.0005888347682728,-15.580944775478136
6.360360448,1.000891764020439,-16.06849562481536
6.374774784,1.0011559112966335,-16.559780774563666
6.38918912,1.001369196378435,-17.054145690121704
6.403603456,1.0015225704207456,-17.551018836932723
6.418017792,1.001608760071572,-18.049597930759933
6.43243264,1.001624111868322,-18.549030726209892
6.446846976,1.0015676911480516,-19.048483053670534
6.461261312,1.0014419773491259,-19.547098744146016
6.475675648,1.0012524571046397,-20.044117822302876
6.490089984,1.0010069592820239,-20.53878368489147
6.50450432,1.0007168133497593,-21.03040256042011
6.518919168,1.0003942484447967,-21.518636565801366
6.533333504,1.00005362243375,-22.003107679616345
6.54774784,0.9997100919810391,-22.483675236124636
6.562162176,0.9993787465456878,-22.960397149719046
6.576576512,0.99907422468401,-23.4335368356968
6.590990848,0.9988102194777835,-23.90344706384108
6.605405184,0.9985985925847634,-24.370667192526344
6.619820032,0.9984485973705313,-24.83599380540591
6.634234368,0.9983671113304668,-25.300156733930308
6.648648704,0.9983580950965923,-25.76394674043861
6.66306304,0.9984216944415852,-26.228329056186077
6.677477376,0.9985555031515441,-26.694193442419564
6.691891712,0.9987535665357166,-27.16228431637569
6.70630656,0.999007472033686,-27.63338394696989
6.720720896,0.9993056128454733,-28.108076546560714
6.735135232,0.9996352160827798,-28.586856308923185
6.749549568,0.9999815869298956,-29.069961581835027
6.763963904,1.0003293858391242,-29.557556883838533
6.77837824,1.000663122794051,-30.049517941003774
6.792792576,1.0009685218819668,-30.5456549923933
6.807207424,1.0012315713126798,-31.045434423424766
6.82162176,1.0014407444663667,-31.54840736003665
6.836036096,1.0015866489285523,-32.05377488179446
6.850450432,1.0016629808817155,-32.56076605006299
6.864864768,1.0016660736744385,-33.06852006095189
6.879279104,1.0015955918470945,-33.576188228956234
6.89369344,1.0014545076760386,-34.082830605367334
6.908108288,1.0012491086603208,-34.58768905464787
6.922522624,1.00098785445784,-35.090025294138655
6.93693696,1.000682796613626,-35.589208512896676
6.951351296,1.0003466207164486,-36.084807998554965
6.965765632,0.9999946909406306,-36.57652452115633
6.980179968,0.999642234315041,-37.06425091626142
6.994594816,0.9993048398596261,-37.54805372569252
7.009009152,0.9989975021978569,-38.028209281943354
7.023423488,0.9987338184344864,-38.50515835552222
7.037837824,0.9985258805163065,-38.97949911876871
7.05225216,0.9983827777956127,-39.45197015013024
7.066666496,0.9983108751007164,-39.92340049128283
7.081080832,0.9983138253176673,-40.39466499049267
7.09549568,0.9983914281208066,-40.86668580824511
7.109910016,0.9985403573324709,-41.340315535749866
7.124324352,0.9987542877329412,-41.81642758271083
7.138738688,0.9990239854721074,-42.29573486442783
7.153153024,0.9993372466119621,-42.77884588188445
7.16756736,0.9996806276349272,-43.26620813382367
7.181982208,1.0000386471729852,-43.75812106404791
7.196396544,1.0003959735231889,-44.254628132889934
7.21081088,1.0007362017516703,-44.75563832114413
7.225225216,1.0010448113214616,-45.26087359165891
7.239639552,1.0013080730487036,-45.76984166738161
7.254053888,1.0015140905043112,-46.281948776955105
7.268468224,1.0016538144892708,-46.79644707253391
7.282883072,1.0017209421180904,-47.31247986460695
7.297297408,1.0017122701957668,-47.82920748161307
7.311711744,1.0016283183966264,-48.345660675912264
7.32612608,1.0014721887127107,-48.8609631993389
7.340540416,1.001250939945401,-49.374315620308536
7.354954752,1.0009740536912048,-49.88496036735802
7.3693696,1.0006534804667473,-50.392329777823356
7.383783936,1.0003034082064641,-50.89591559491652
7.398198272,0.9999391556851602,-51.39553319430262
7.412612608,0.9995767270228848,-51.89098360794067
7.427026944,0.999232122481065,-52.38247903724378
7.44144128,0.998920877821971,-52.87026705179963
7.455855616,0.9986564189835292,-53.35480797272033
7.470270464,0.9984509613610112,-53.83681586104613
7.4846848,0.9983134609604174,-54.31697184722935
7.499099136,0.998250357338245,-54.79621439352496
7.513513472,0.9982644399137782,-55.275434666564756
7.527927808,0.9983554198936705,-55.75553784188695
7.542342144,0.9985193321638237,-56.2374722223796
7.556756992,0.9987489658745043,-56.72208521463213
7.571171328,0.9990345797418958,-57.210099546307355
7.585585664,0.9993634390890589,-57.70213481343442
7.6,0.9997211826848424,-58.19863428726898
7.614414336,1.0000919511285784,-58.6997994189144
7.628828672,1.000459626943315,-59.2057710650743
7.643243008,1.0008077078666056,-59.71634040761468
7.657657856,1.0011209933200957,-60.23124205266056
7.672072192,1.0013857532822175,-60.749918331175884
7.686486528,1.0015898684076394,-61.27177337759939
7.700900864,1.0017245867104896,-61.795968785113445
7.7153152,1.001783658836211,-62.32164692751095
7.729729536,1.0017642682401227,-62.84792074181041
7.744144384,1.0016671183727406,-63.37381914312528
7.75855872,1.0014965008632997,-63.89841497773586
7.772973056,1.0012594617292248,-64.42088666718966
7.787387392,1.0009664589902436,-64.94052115840049
7.801801728,1.0006301160050195,-65.4566428114729
7.816216064,1.0002651770946949,-65.96887039387363
7.8306304,0.9998874607375497,-66.47693991700905
7.845045248,0.9995139501404727,-66.98074834211232
7.859459584,0.9991608568864936,-67.48047781307646
7.87387392,0.9988440400047658,-67.97642601149163
7.888288256,0.9985773866253745,-68.46913635926758
7.902702592,0.9983729395941617,-68.95927040675409
7.917116928,0.9982397240834755,-69.44766058813525
7.931531776,0.9981840342083944,-69.9351937172383
7.945946112,0.9982085641777197,-70.42281184500814
7.960360448,0.9983121487615346,-70.91148780808777
7.974774784,0.9984906043533771,-71.40217091864105
7.98918912,0.9987362368876566,-71.89571350563153
8.003603456,0.99903804663263,-72.39287595349036
8.018017792,0.9993831747020773,-72.89427464431145
8.03243264,0.9997563051675488,-73.40033829004707
8.046846976,1.000140847504795,-73.911273483992
8.061261312,1.0005204549288746,-74.42716570990552
8.075675648,1.0008778735200183,-74.94778195521093
8.090089984,1.0011975796575177,-75.47287141167101
8.10450432,1.0014652148413834,-76.00181830842716
8.118919168,1.0016692858701655,-76.53391967016762
8.133333504,1.001800266822168,-77.06837993820835
8.14774784,1.0018524419837715,-77.60432497308281
8.162162176,1.001823395318761,-78.14070891876055
8.176576512,1.0017139990926758,-78.67664619997097
8.190990848,1.001528937668345,-79.21115457333475
8.205405184,1.0012762803400956,-79.74336937011506
8.219820032,1.0009666403620863,-80.27256631074839
8.234234368,1.0006136950742697,-80.79810053397823
8.248648704,1.0002327805007516,-81.31952584563348
8.26306304,0.9998404084680685,-81.83663774273452
8.277477376,0.9994541034619253,-82.34932164902476
8.291891712,0.9990907484538444,-82.85785290657739
8.30630656,0.9987664703177713,-83.36246093203835
8.320720896,0.9984956747128308,-83.86380168087211
8.335135232,0.9982904392415147,-84.36256924694104
8.349549568,0.9981601027923709,-84.85955662533833
8.363963904,0.9981105547790273,-85.35579819717975
8.37837824,0.9981442299751986,-85.85220919656959
8.392792576,0.9982598701601259,-86.34983890920348
8.407207424,0.998452434174164,-86.84964868994713
8.42162176,0.9987138808703103,-87.35251080257999
8.436036096,0.9990325859640005,-87.85919089203433
8.450450432,0.9993947171379811,-88.37031402233109
8.464864768,0.999784565924593,-88.88630541142557
8.479279104,1.000184744734901,-89.40740593799403
8.49369344,1.0005780021376265,-89.93361792607321
8.508108288,1.0009466714556392,-90.46477639287413
8.522522624,1.0012747620067692,-91.00047848506968
8.53693696,1.0015475904753255,-91.54013431563368
8.551351296,1.0017533244661225,-92.08304258159687
8.565765632,1.0018825792470867,-92.62832114780457
8.580179968,1.0019295572718758,-93.17501940900816
8.594594816,1.0018917854504985,-93.7221509777753
8.60900864,1.0017709247896596,-94.26869278441637
8.623423488,1.0015719938801508,-94.81367717222568
8.637838336,1.001303423047658,-95.3561834015412
8.65225216,1.0009767175581978,-95.89551147913518
8.666667008,1.0006060913156554,-96.4309783711909
8.681080832,1.0002078798478986,-96.96218287843186
8.69549568,0.9997990792215388,-97.48885773511687
8.709909504,0.9993980134494996,-98.01094130136715
8.724324352,0.9990221572382959,-98.52868737571126
8.7387392,0.9986881517165493,-99.04244890408162
8.753153024,0.998410922627658,-99.55282446855055
8.767567872,0.9982028285301137,-100.0605587988644
8.781981696,0.998073216530473,-100.56658206040122
8.796396544,0.99802815909326,-101.07182628988755
8.810810368,0.9980697325968599,-101.57735409849056
8.825225216,0.9981965286470875,-102.0842324583872
8.839640064,0.9984029813879639,-102.5934135370509
8.854053888,0.9986803991598985,-103.10586934717966
8.868468736,0.9990166788829784,-103.6223387086205
8.88288256,0.9993970037518636,-104.1434945324742
8.897297408,0.9998050107440307,-104.66974651395356
8.911711232,1.0002227697512287,-105.20130060065713
8.92612608,1.0006317671738296,-105.7381985239008
8.940540928,1.0010142270273654,-106.28023154858661
8.954954752,1.0013532441379005,-106.82694899599214
8.9693696,1.0016339367789575,-107.37777162832057
8.983783424,1.0018436288419492,-107.93189813855797
8.998198272,1.0019731103658611,-108.48845402432629
9.01261312,1.0020165330877124,-109.04642547685594
9.027026944,1.001971561698646,-109.60476578426002
9.041441792,1.001840152603775,-110.16243189492333
9.055855616,1.0016275019783902,-110.71840422119949
9.070270464,1.0013428261995878,-111.2717962292867
9.084684288,1.000998300729123,-111.82177350895135
9.099099136,1.0006088906896597,-112.36768291321424
9.113513984,1.0001913158130122,-112.90910901885793
9.127927808,0.9997640441850499,-113.44579709078401
9.142342656,0.9993456293433646,-113.97771781156435
9.15675648,0.9989545573952116,-114.5050811916063
9.171171328,0.9986080590720497,-115.02832822291093
9.185585152,0.9983215550039195,-115.54806119010894
9.2,0.9981079608505474,-116.06507647394685
9.214414848,0.9979768858188763,-116.58032276790246
9.228828672,0.9979342874611152,-117.09481224687035
9.24324352,0.9979823677461911,-117.60967919471662
9.257657344,0.9981192523043887,-118.12594834390664
9.272072192,0.9983393305789027,-118.64470382968213
9.286486016,0.9986329812240188,-119.16690375588183
9.300900864,0.9989876478087067,-119.6933431907537
9.315315712,0.9993878243871147,-120.22466709976568
9.329729536,0.9998160822204748,-120.76135631713187
9.344144384,1.0002536621740297,-121.30361905824152
9.358558208,1.000681453273814,-121.85141778197159
9.372973056,1.0010806497923492,-122.40459574615484
9.38738688,1.0014337244928238,-122.96264181986066
9.401801728,1.0017250477907118,-123.52495516060368
9.416216576,1.001941757152292,-124.09069126350977
9.4306304,1.0020742154094435,-124.65892536688409
9.445045248,1.0021161316501386,-125.22857096032227
9.459459072,1.002065653059922,-125.79859024258172
9.47387392,1.0019245777257697,-126.36786997623848
9.488288768,1.0016986344844203,-126.93532628394726
9.502702592,1.001397522539101,-127.49999856157764
9.51711744,1.0010341657071757,-128.06108412251356
9.531531264,1.0006241224596186,-128.61789670844607
9.545946112,1.0001851668632167,-129.1699720571129
9.560359936,0.9997364085847885,-129.71705631460662
9.574774784,0.999297575021574,-130.25915219817256
9.589189632,0.9988879726953471,-130.79645505410403
9.603603456,0.9985255319021742,-131.3294214406102
9.618018304,0.9982264438440411,-131.85872628054645
9.632432128,0.9980041068884962,-132.38518054733956
9.646846976,0.9978685744081385,-132.9097936436607
9.6612608,0.9978261195723607,-133.4336218260072
9.675675648,0.9978789628754373,-133.9578383791722
9.690090496,0.9980250190967406,-134.48356726923512
9.70450432,0.998258285951927,-135.01191382051107
9.718919168,0.9985687336463989,-135.54386398875482
9.733332992,0.9989429693840389,-136.08028036280945
9.74774784,0.999364787578786,-136.62185312579618
9.762161664,0.9998157871702665,-137.16904229004416
9.776576512,1.0002763477545216,-137.72207283616729
9.79099136,1.0007263380947207,-138.28092754346483
9.805405184,1.001145959354306,-138.8453947370392
9.819820032,1.0015168935835033,-139.41502681804712
9.834233856,1.001822710346842,-139.98905670760925
9.848648704,1.0020498894900254,-140.56670287862374
9.863063552,1.0021882386980667,-141.14693208958812
9.877477376,1.0022313770133375,-141.728659806125
9.891892224,1.0021772109736409,-142.31071387852936
9.906306048,1.0020275710449953,-142.891970471807
9.920720896,1.0017886647693415,-143.4713027021603
9.93513472,1.0014706622356262,-144.047691671066
9.949549568,1.001087018464411,-144.6202649719342
9.963964416,1.0006542550343833,-145.18834635542564
9.97837824,1.0001911382701443,-145.75139875653554
9.992793088,0.9997176355066176,-146.30918209810065
10.007206912,0.9992545406239841,-146.86170204953612
10.02162176,0.998822105748694,-147.4091302687847
10.036035584,0.9984396022476828,-147.95197152450373
10.050450432,0.9981237703919006,-148.49093902472646
10.06486528,0.9978888974694697,-149.02687911231376
10.079279104,0.9977455273261234,-149.56081459119426
10.093693952,0.9977004904733139,-150.0939532041818
10.108107776,0.9977560368707826,-150.6274249518985
10.122522624,0.9979100642438083,-151.162498683547
10.136936448,0.9981562379356196,-151.70029036390991
10.151351296,0.9984840711947214,-152.241892849606
10.165766144,0.998879445698013,-152.7881937051355
10.180179968,0.9993253670929628,-153.33988803570173
10.194594816,0.9998023823983516,-153.89751381473116
10.20900864,1.0002898244036247,-154.46127143185643
10.223423488,1.0007662216943856,-155.0312011505213
10.237838336,1.0012109503987876,-155.6070583246898
10.25225216,1.0016044128455586,-156.18829655235348
10.266667008,1.0019292058502696,-156.77425979700143
10.281080832,1.002171148008175,-157.3640174361876
10.29549568,1.0023190554025039,-157.9565011044772
10.309909504,1.0023664461894695,-158.55058751995938
10.324324352,1.002310732652778,-159.1450300934534
10.3387392,1.0021538900800395,-159.73862701610645
10.353153024,1.0019022830389066,-160.33018815148873
10.367567872,1.0015666084924004,-160.91865706368327
10.381981696,1.0011609204011065,-161.50307148172078
10.396396544,1.0007027340451562,-162.08270811792008
10.410810368,1.0002117486660798,-162.65701831359925
10.425225216,0.9997092345526043,-163.22572606421116
10.439640064,0.99921707950033,-163.78880790283716
10.454053888,0.9987569238633895,-164.34647846026456
10.468468736,0.9983488749499517,-164.8992509985526
10.48288256,0.9980113368499655,-165.447821986169
10.497297408,0.9977591389110941,-165.99313527053943
10.511711232,0.9976039071272396,-166.53631049910086
10.52612608,0.9975529987230002,-167.0785124493848
10.540540928,0.9976087456351554,-167.62102797926343
10.554954752,0.9977694376088471,-168.1651728425671
10.5693696,0.9980283472218461,-168.71215489387438
10.583783424,0.9983744751573204,-169.26309530080042
10.598198272,0.9987931561418069,-169.81898178561548
10.61261312,0.9992661623649292,-170.3805684919167
10.627026944,0.9997732524638266,-170.94841166556597
10.641441792,1.0002921890237597,-171.52278088113698
10.655855616,1.0008005036085459,-172.10367585287617
10.670270464,1.0012759004731382,-172.69085606887762
10.684684288,1.0016975722776118,-173.28381475002504
10.699099136,1.0020470000974724,-173.8817787988205
10.713513984,1.0023086782389241,-174.4838169398005
10.727927808,1.0024708846837083,-175.0887934497857
10.742342656,1.0025259928347117,-175.69549483805386
10.75675648,1.0024713730982056,-176.30262916881983
10.771171328,1.0023087306359488,-176.90890946589485
10.785585152,1.002044700223418,-177.51304044379236
10.8,1.0016901943051668,-178.11390001850543
10.814414848,1.0012601733465536,-178.71049701745056
10.828828672,1.0007730733760352,-179.30196870008416
10.84324352,1.0002496352958943,-179.88778466775483
10.857657344,0.9997126782943381,179.53240583605816
10.872072192,0.9991854834291749,178.95864945458734
10.886486016,0.9986911232853876,178.3907106389122
10.900900864,0.9982512317960702,177.8280774556404
10.915315712,0.9978855114185524,177.26999156791356
10.929729536,0.9976104119020326,176.71548986010782
10.944144384,0.9974383434521638,176.16340369593868
10.958558208,0.9973772809181263,175.61246318283236
10.972973056,0.9974305781867063,175.06126891354523
10.98738688,0.9975962430343666,174.50845929078912
11.001801728,0.9978677793160804,173.95271427298655
11.016216576,0.9982336197944158,173.39283304492574
11.0306304,0.998678263724336,172.82773450056482
11.045045248,0.9991825775110865,172.2566084016503
11.059459072,0.9997247870437038,171.6788249780044
11.07387392,1.0002814550060894,171.09412645647558
11.088288768,1.000828434599811,170.50240294330948
11.102702592,1.0013416185736042,169.9039620077707
11.11711744,1.0017988297202898,169.29930686745521
11.131531264,1.0021798102192372,168.689220290699
11.145946112,1.002467701574049,168.07474918725424
11.160359936,1.0026496056503547,167.4570123466901
11.174774784,1.002717062834097,166.83737068538375
11.189189632,1.0026665628628535,166.217163794384
11.203603456,1.0024997603506647,165.59784495144544
11.218018304,1.002223154291817,164.98070264158812
11.232432128,1.001848273022156,164.36702581664272
11.246846976,1.0013908206844957,163.75790316659905
11.2612608,1.0008700420285708,163.15422184774556
11.275675648,1.0003084914259606,162.55664740809004
11.290090496,0.9997302129199173,161.96551043884625
11.30450432,0.9991602506713216,161.38096119348813
11.318919168,0.9986235070543436,160.80271232591832
11.333332992,0.9981437438492992,160.230281313709
11.34774784,0.9977421232095575,159.662866053872
11.362161664,0.9974367999164571,159.0994210620889
11.376576512,0.997241496938995,158.53873761281773
11.39099136,0.9971654832565862,157.97943605435074
11.405405184,0.9972127504496492,157.42004317437156
11.419820032,0.9973818613205665,156.85904452338352
11.434233856,0.9976660702705467,156.29506400323703
11.448648704,0.9980535253284923,155.72671784168654
11.463063552,0.9985278062509105,155.15287741909933
11.477477376,0.999068722899612,154.57260442881426
11.491892224,0.9996529299964305,153.98523363556566
11.506306048,1.0002551220918574,153.39037898147703
11.520720896,1.0008493183690916,152.78798335556814
11.53513472,1.0014096250835567,152.17829757062313
11.549549568,1.0019114086316736,151.5618345747946
11.563964416,1.0023328518990013,150.93945502230073
11.57837824,1.0026549876143853,150.3121821936762
11.592793088,1.002863481761551,149.68130723273333
11.607206912,1.0029487596349456,149.04822519881355
11.62162176,1.002906275552414,148.41441510945774
11.636035584,1.002737123498355,147.7813944385767
11.650450432,1.002447985396384,147.15065332370133
11.66486528,1.002050444653223,146.52353421993615
11.679279104,1.0015613119495097,145.9012730019691
11.693693952,1.0010011395869953,145.28485764038015
11.708107776,1.0003935238057633,144.67500103700587
11.722522624,0.9997648316515059,144.072189323397
11.736936448,0.9991422059711088,143.476529658797
