freq,mag,phase
6.0,1.000038989435399,-28.99114359066663
6.006649856,0.9998893325865253,-29.245232551189346
6.013300224,0.9997414198994425,-29.497389359099994
6.01995008,0.9996075952872828,-29.747585288028283
6.026599936,0.9994955077248385,-29.996236110285167
6.033250304,0.9994112073704782,-30.243614076568747
6.03990016,0.9993598244970685,-30.49008295847307
6.046550528,0.9993441569269359,-30.73618035438639
6.053200384,0.9993651838190968,-30.982397799336113
6.05985024,0.9994215992737155,-31.22918656696122
6.066500608,0.9995104266872491,-31.477058553332334
6.073150464,0.999626571576401,-31.726408146680903
6.07980032,0.9997636563479894,-31.977543949021634
6.086450688,0.9999136563697552,-32.23073079787903
6.093100544,1.000068478896997,-32.48612575354261
6.0997504,1.0002191936027256,-32.7436063701304
6.106400768,1.0003571083527028,-33.003183985188244
6.113050624,1.0004747991086103,-33.26459110689783
6.119700992,1.0005656560223661,-33.52747313699904
6.126350848,1.0006240788144978,-33.791456413269756
6.133000704,1.000647294554891,-34.056088373079774
6.139651072,1.000633349456613,-34.320886011646955
6.146300928,1.0005836823752896,-34.585302877573646
6.152950784,1.0005005874474688,-34.84887017961984
6.159601152,1.0003885736636513,-35.11116700170675
6.166251008,1.0002545350578598,-35.37188233749139
6.172900864,1.0001054673424725,-35.63076056159264
6.179551232,0.999950054554367,-35.88756188312361
6.186201088,0.9997968053298175,-36.14238821158485
6.192851456,0.999654726834479,-36.39525353688396
6.199501312,0.9995311886371341,-36.64633921833499
6.206151168,0.9994340744072513,-36.89603039630908
6.212801536,0.9993682214173186,-37.14460624221834
6.219451392,0.9993377382993054,-37.392600702817816
6.226101248,0.9993440306002442,-37.64051516820316
6.232751616,0.999387210771818,-37.88883192519502
6.239401472,0.9994646114735249,-38.13807361274396
6.246051328,0.9995718893077735,-38.3886046629754
6.252701696,0.9997031596649641,-38.640882642930286
6.259351552,0.9998510102838598,-38.89513212103462
6.266001408,1.000006907011794,-39.151544038722314
6.272651776,1.00016236625111,-39.41012874968837
6.279301632,1.0003084409762815,-39.670883684768484
6.285952,1.0004368725962183,-39.93356499147305
6.292601856,1.0005405557817701,-40.197936719807664
6.299251712,1.0006134422580881,-40.46359459246747
6.30590208,1.0006514957225268,-40.73008517896978
6.312551936,1.0006526689223385,-40.99690305766662
6.319201792,1.0006165851351063,-41.263561784997854
6.32585216,1.0005453865363478,-41.529594301859554
6.332502016,1.0004431909941343,-41.79450886730884
6.339151872,1.000315249302148,-42.0579166925417
6.34580224,1.000169352905083,-42.31956541884982
6.352452096,1.0000134522957487,-42.579153494909015
6.359102464,0.9998560133709797,-42.83672475814466
6.36575232,0.9997064375046194,-43.09225537029645
6.372402176,0.9995728978550682,-43.34588124874836
6.379052544,0.9994628444929091,-43.597951261338764
6.3857024,0.9993827169355185,-43.84875966818291
6.392352256,0.9993369726821935,-44.098785854816
6.399002624,0.9993282784673474,-44.34851325199571
6.40565248,0.9993570886334905,-44.59844584466415
6.412302336,0.9994219497234108,-44.849084313324404
6.418952704,0.9995192036929943,-45.1008824705611
6.42560256,0.9996432727510427,-45.35431030989782
6.432252928,0.9997872974583288,-45.6096193465965
6.438902784,0.9999431932295545,-45.86705696062046
6.44555264,1.0001021463114501,-46.126720264259454
6.452203008,1.0002549587367053,-46.38861721136992
6.458852864,1.0003933999825143,-46.65257816868674
6.46550272,1.000509349810189,-46.9183578866329
6.472153088,1.0005965044871867,-47.18558821418276
6.478802944,1.000649905141618,-47.45383713683821
6.4854528,1.000666205115812,-47.72270994037236
6.492103168,1.0006447613660174,-47.99154878539393
6.498753024,1.000586888742359,-48.25997717928959
6.505403392,1.0004951924957899,-48.52748390732486
6.512053248,1.0003753192324711,-48.793556909022634
6.518703104,1.0002339267475198,-49.05794866788588
6.525353472,1.0000787425379836,-49.320379729699944
6.532003328,0.9999187006373816,-49.5807328813276
6.538653184,0.999762747639626,-49.83899973373767
6.545303552,0.9996196592157669,-50.09526999002494
6.551953408,0.9994975500477602,-50.349822111221556
6.558603264,0.9994032023886588,-50.60296107766127
6.565253632,0.9993422086847537,-50.85507042673655
6.571903488,0.999317971800949,-51.10669789375724
6.578553856,0.9993318224333835,-51.358302484151736
6.585203712,0.9993831144590681,-51.61046779016999
6.591853568,0.9994689368994961,-51.86360247033416
6.598503936,0.9995843973947109,-52.11820115150322
6.605153792,0.9997231878982669,-52.37461156033504
6.611803648,0.9998773176432344,-52.633091757041605
6.618454016,1.0000383913694164,-52.89379235832162
6.625103872,1.0001970540356067,-53.15677376925076
6.631753728,1.0003444949723856,-53.421911714019906
6.638404096,1.0004724521783463,-53.68902313548879
6.645053952,1.0005733960387262,-53.95780265250801
6.65170432,1.000642002682609,-54.22778793294039
6.658354176,1.0006742356567084,-54.49854834647632
6.665004032,1.0006681442817251,-54.769589533848496
6.6716544,1.0006241821633381,-55.04035171896615
6.678304256,1.0005446219202103,-55.31035422641253
6.684954112,1.0004340247922536,-55.579089857065945
6.69160448,1.0002986351023173,-55.846266541958585
6.698254336,1.000145825989829,-56.111529360725285
6.704904192,0.9999844461107916,-56.37472323147303
6.71155456,0.9998233718541838,-56.635788407121
6.718204416,0.999671721655678,-56.894807936589665
6.724854784,0.9995382087312579,-57.15190018295145
6.73150464,0.9994302020073711,-57.4074319781544
6.738154496,0.9993539871068307,-57.66177575684114
6.744804864,0.9993136738633432,-57.915372497928985
6.75145472,0.999311806064316,-58.16877133443682
6.758104576,0.9993484566380277,-58.42244566770958
6.764754944,0.9994216000048909,-58.67696222753172
6.7714048,0.9995270534867858,-58.932780860768204
6.778054656,0.9996590505337442,-59.190258402775584
6.784705024,0.9998101467538112,-59.44978384034334
6.79135488,0.9999716478733648,-59.71155713219878
6.798004736,1.0001347919663628,-59.97558945334231
6.804655104,1.0002901617291327,-60.241871793343236
6.81130496,1.0004291562096532,-60.51022600491077
6.817955328,1.000543608095984,-60.78044072359059
6.824605184,1.0006275110619165,-61.05205506995003
6.83125504,1.0006756746272218,-61.324663239871704
6.837905408,1.0006857453204265,-61.59774432314725
6.844555264,1.0006567449433938,-61.87076593848297
6.85120512,1.0005905809725728,-62.143258807648785
6.857855488,1.0004907072437588,-62.414659990798036
6.864505344,1.0003628545627083,-62.68456756794403
6.8711552,1.0002140299345927,-62.952669739664415
6.877805568,1.0000526878094451,-63.218773678908704
6.884455424,0.9998878333524337,-63.48268310767521
6.891105792,0.9997288751616501,-63.744454398465194
6.897755648,0.9995847467125256,-64.00419220002547
6.904405504,0.9994636231591206,-64.26222017368089
6.911055872,0.9993721097179007,-64.5188646340303
6.917705728,0.9993158229874489,-64.77450633664621
6.924355584,0.9992974790117877,-65.02974693619555
6.931005952,0.999318567693377,-65.28508398691635
6.937655808,0.9993777877867455,-65.54103034819097
6.944305664,0.9994720116992144,-65.79809551293273
6.950956032,0.9995956978152739,-66.05668696291477
6.957605888,0.9997418884042177,-66.31727558188852
6.964256256,0.9999027046492203,-66.58000904081722
6.970906112,1.0000687682452791,-66.84502557958
6.977555968,1.0002308461712834,-67.1123904725171
6.984206336,1.0003800099172173,-67.38195460592515
6.990856192,1.0005073424382718,-67.65350838063536
6.997506048,1.0006062442564583,-67.92666112970417
7.004156416,1.000670749386776,-68.20099429728918
7.010806272,1.0006972580221722,-68.47604856372844
7.017456128,1.0006843112403891,-68.75128470107899
7.024106496,1.0006324263375759,-69.02613781096797
7.030756352,1.000544683433702,-69.30014578275241
7.03740672,1.0004259465713357,-69.5727786112269
7.044056576,1.0002827250919357,-69.84374064509595
7.050706432,1.0001231174080525,-70.11268189222601
7.0573568,0.9999561531989262,-70.37945110405107
7.064006656,0.9997909315430761,-70.6440739021709
7.070656512,0.9996372254356015,-70.90655021689592
7.07730688,0.9995033892003325,-71.16709804213232
7.083956736,0.9993972311650039,-71.4260968048069
7.090606592,0.9993245262153799,-71.68393283387185
7.09725696,0.9992894552630183,-71.9411126557335
7.103906816,0.9992941844402925,-72.19813617275145
7.110557184,0.9993383956013069,-72.4555838977142
7.11720704,0.9994197059893267,-72.71393368073716
7.123856896,0.9995335624401068,-72.97371583543222
7.130507264,0.9996735103342596,-73.23531500148925
7.13715712,0.9998315986066169,-73.49900379872285
7.143806976,0.9999992334990158,-73.764976033609
7.150457344,1.0001666718347408,-74.03334360457342
7.1571072,1.0003248620722396,-74.30403379691344
7.163757056,1.0004645716454317,-74.57678682482927
7.170407424,1.0005779466438007,-74.85137099382138
7.17705728,1.0006586851768697,-75.12738562279122
7.183707648,1.0007022486794497,-75.40427732379192
7.190357504,1.0007059676465138,-75.68158825486677
7.19700736,1.0006696689761034,-75.95879016529067
7.203657728,1.000595384061845,-76.23526993798461
7.210307584,1.0004871484187672,-76.51061438099092
7.21695744,1.0003512255126574,-76.7843645248628
7.223607808,1.0001949655682647,-77.0562165424461
7.230257664,1.000027320825846,-77.32584405455896
7.23690752,0.9998576051237967,-77.59332896050785
7.243557888,0.9996955067715781,-77.85852088119046
7.250207744,0.9995499493433808,-78.12173721109032
7.2568576,0.9994291353692794,-78.38319425359698
7.263507968,0.9993402190232976,-78.64328121240158
7.270157824,0.999288269365812,-78.90245872441699
7.276808192,0.9992757716577816,-79.16125580349578
7.283458048,0.9993040802292766,-79.42024493407074
7.290107904,0.9993711707374457,-79.67993640951673
7.296758272,0.9994735357975282,-79.94088632256627
7.303408128,0.9996053598786838,-80.20347683472305
7.310057984,0.9997593834102737,-80.46809632643325
7.316708352,0.9999267585894664,-80.73504486407298
7.323358208,1.000098281816146,-81.00431818576438
7.330008064,1.0002641711173743,-81.2760050964055
7.336658432,1.0004152193774236,-81.54990447351477
7.343308288,1.0005426290117958,-81.82580564280148
7.349958656,1.0006395051523744,-82.10331551160012
7.356608512,1.0007000941221944,-82.38199286163109
7.363258368,1.00072132658421,-82.66129109774191
7.369908736,1.0007015421067145,-82.94067753009844
7.376558592,1.0006421388697546,-83.21959028750638
7.383208448,1.0005461335623003,-83.49754805684735
7.389858816,1.0004191463198677,-83.77402685706365
7.396508672,1.000267956505263,-84.04868150703967
7.403158528,1.000101295160916,-84.321277736664
7.409808896,0.9999285766719971,-84.59158127490291
7.416458752,0.9997590743323236,-84.85961772421143
7.42310912,0.9996028372634687,-85.1255321940164
7.429758976,0.999468418763332,-85.38949599318502
7.436408832,0.9993635637610333,-85.65187541165407
7.4430592,0.9992940725480429,-85.91315263521598
7.449709056,0.999264169858959,-86.17380500288863
7.456358912,0.9992752298955122,-86.43437931249228
7.46300928,0.999326907834942,-86.69546678563484
7.469659136,0.9994163779504626,-86.95758111441006
7.476308992,0.999538433572515,-87.22122018834945
7.48295936,0.9996863545208482,-87.48674319538381
7.489609216,0.9998519982366026,-87.75450838827778
7.496259584,1.0000259197632655,-88.02467698323252
7.50290944,1.000198217474905,-88.29726849036675
7.509559296,1.0003593502612038,-88.57220076752883
7.516209664,1.0005001483288107,-88.8493004794009
7.52285952,1.0006128169234751,-89.12818229897418
7.529509376,1.000690863084152,-89.40846189252667
7.536159744,1.0007298207389412,-89.68961191060514
7.5428096,1.0007276615358904,-89.97110687475747
7.549459456,1.0006841901145749,-90.25232706331255
7.556109824,1.0006019940749136,-90.53278556165958
7.56275968,1.0004853924566008,-90.8119788379471
7.569410048,1.0003411713583836,-91.08945973252266
7.576059904,1.0001772714708679,-91.36491028048822
7.58270976,1.0000028892644997,-91.63810696678013
7.589360128,0.9998279688594786,-91.90899689236413
7.596009984,0.9996620807052126,-92.17760426162795
7.60265984,0.9995147724510581,-92.44413629409651
7.609310208,0.9993943862012997,-92.70890488911782
7.615960064,0.9993075676593838,-92.97233238368516
7.62260992,0.9992594694477442,-93.23487294978767
7.629260288,0.9992525986406388,-93.4970980404486
7.635910144,0.9992876438330749,-93.75959858712484
7.642560512,0.9993626834870154,-94.02291962302974
7.649210368,0.9994733766398985,-94.28758544852379
7.655860224,0.9996134828520529,-94.55400850180395
7.662510592,0.9997754731865387,-94.82257112607167
7.669160448,0.9999498168372638,-95.09352217597822
7.675810304,1.000127127544811,-95.36693479779093
7.682460672,1.0002972145478606,-95.64278967543231
7.689110528,1.0004503831614262,-95.92095608015698
7.695760384,1.0005783660599978,-96.20107681959419
7.702410752,1.0006736095847784,-96.48283197055986
7.709060608,1.0007308796348635,-96.76563531612253
7.715710976,1.0007468198620848,-97.04909320282935
7.722360832,1.0007205324610802,-97.33252906383312
7.729010688,1.0006534572361596,-97.61541859689
7.735661056,1.0005492005393248,-97.89718896752402
7.742310912,1.0004136853312622,-98.1774028421636
7.748960768,1.0002545201134085,-98.45567414433874
7.755611136,1.0000805006539344,-98.73174021780953
7.762260992,0.9999014304032129,-99.0054624426217
7.768910848,0.9997274530468844,-99.27682579954794
7.775561216,0.9995682035977349,-99.54598119646396
7.782211072,0.9994327973204802,-99.8131996154163
7.788860928,0.999328859586073,-100.07881751762814
7.795511296,0.9992623270452209,-100.34332037898994
7.802161152,0.999236935627684,-100.60729984824165
7.80881152,0.999254292922108,-100.87121179415895
7.815461376,0.999313257128725,-101.13576248764667
7.822111232,0.9994108237461126,-101.4014436717216
7.8287616,0.9995414259740611,-101.66876999965716
7.835411456,0.9996977286787025,-101.93808178279707
7.842061312,0.9998709618963162,-102.20971909753153
7.84871168,1.0000514507582858,-102.48386068817118
7.855361536,1.0002290220959547,-102.76050635970908
7.862011392,1.000393698716929,-103.0395931719733
7.86866176,1.0005361529955978,-103.32078636172555
7.875311616,1.0006483475137964,-103.60384749845733
7.881961984,1.0007240087555513,-103.88825029903524
7.88861184,1.0007588287594806,-104.17347608985294
7.895261696,1.0007507516437522,-104.45896508990919
7.901912064,1.0007002477457467,-104.74413666136851
7.90856192,1.0006100005905842,-105.02838645325285
7.915211776,1.000485068099691,-105.31126069251465
7.921862144,1.0003324693454299,-105.5923158569473
7.928512,1.0001605473271613,-105.87122301499278
7.935161856,0.999979242558477,-106.14776058607794
7.941812224,0.9997984427272737,-106.4218926536799
7.94846208,0.9996284605582133,-106.69367873481647
7.955112448,0.9994788695071825,-106.96339819805625
7.961762304,0.9993582516106455,-107.2312804475717
7.96841216,0.9992732447893663,-107.49780277477221
7.975062528,0.9992287131232623,-107.7635375078272
7.981712384,0.9992272528107172,-108.0289612165546
7.98836224,0.9992691215470829,-108.29476782759039
7.995012608,0.9993518486838281,-108.56143555024555
8.001662464,0.9994709758918473,-108.82960245256736
8.00831232,0.9996196965966659,-109.09963275048898
8.014962688,0.9997898041669989,-109.37189583883064
8.021612544,0.9999717254076177,-109.64667162499991
8.028262912,1.0001552099692488,-109.92398693644003
8.034912768,1.0003299394941407,-110.20382744664785
8.041562624,1.0004860967865257,-110.48599430080081
8.048212992,1.000614844249832,-110.77015001324148
8.054862848,1.0007089212489797,-111.0559251885685
8.061512704,1.0007630202130842,-111.34278651714885
8.068163072,1.0007741585125707,-111.63015401731853
8.074812928,1.0007414678228952,-111.91742559584281
8.081462784,1.0006667259303637,-112.20406782554187
8.088113152,1.000554287871149,-112.48950884873081
8.094763008,1.0004101410283794,-112.77324557572206
8.101413376,1.0002424752765846,-113.05491341675457
8.108063232,1.0000606229085613,-113.33427189613694
8.114713088,0.9998748392719676,-113.61118403739894
8.121363456,0.9996954960495803,-113.88564822130806
8.128013312,0.9995327799609574,-114.15783572743497
8.134663168,0.9993958687128252,-114.4280359081624
8.141313536,0.9992924020728988,-114.6966429841128
8.147963392,0.9992284494326851,-114.96414898372532
8.154613248,0.999207477007918,-115.23112764403984
8.161263616,0.9992307700899581,-115.49818932164965
8.167913472,0.9992972522297991,-115.76591331021281
8.17456384,0.999403029683682,-116.03487663829677
8.181213696,0.9995422513415788,-116.3055800749761
8.187863552,0.999707172323815,-116.578415707523
8.19451392,0.9998885379055278,-116.85368030675247
8.201163776,1.0000761130852347,-117.13155142841302
8.207813632,1.0002594628595234,-117.41200296885116
8.214464,1.0004281944967197,-117.69491552248937
8.221113856,1.0005728542786194,-117.9800615917363
8.227763712,1.000685234914923,-118.26699854479148
8.23441408,1.00075896271896,-118.55529621233904
8.241063936,1.000789880539873,-118.84435453414503
8.247714304,1.0007762321437794,-119.13361638311281
8.25436416,1.0007186204373812,-119.42248135741286
8.261014016,1.0006203871853538,-119.71030071144135
8.267664384,1.0004868081298024,-119.99664331369607
8.27431424,1.0003253217227757,-120.28100762652089
8.280964096,1.0001450647681223,-120.5631385915221
8.287614464,0.9999561223132484,-120.84279628360217
8.29426432,0.9997689989925163,-121.11991503844068
8.300914176,0.9995943824050094,-121.3946262075
8.307564544,0.9994419458037705,-121.66719123366543
8.3142144,0.9993204117621098,-121.9378943238758
8.320864256,0.9992366903253407,-122.20725313775382
8.327514624,0.9991954898722148,-122.47581218787192
8.33416448,0.9991992419373992,-122.74415706831536
8.340814848,0.999247800800098,-123.01293330567624
8.347464704,0.9993384233363077,-123.28268377602402
8.35411456,0.9994661519920388,-123.55400005842029
8.360764928,0.9996237785260108,-123.82731785583368
8.367414784,0.9998026006973781,-124.10299572982677
8.37406464,0.9999924610788402,-124.38125673874696
8.380715008,1.000182726922313,-124.66217471197209
8.387364864,1.000362772088032,-124.94567849276443
8.39401472,1.000522387492649,-125.23157910218866
8.400665088,1.000652571693419,-125.51951394580837
8.407314944,1.0007460318688588,-125.8090264694898
8.413965312,1.0007974194321834,-126.09963213450432
8.420615168,1.0008038864249724,-126.39064708902244
8.427265024,1.0007648666973283,-126.68153430520198
8.433915392,1.00068251375257,-126.97166158348992
8.440565248,1.0005614743316302,-127.26044675627334
8.447215104,1.000408399747803,-127.54746674840818
8.453865472,1.0002318022716494,-127.83224374768686
8.460515328,1.0000416229069329,-128.11459955348406
8.467165184,0.9998485487269432,-128.39438585803498
8.473815552,0.9996632666549782,-128.6716365660578
8.480465408,0.9994964755567285,-128.94653619615147
8.487115776,0.9993574122220543,-129.2194040227674
8.493765632,0.9992539592556706,-129.49064080892165
8.500415488,0.9991920746730281,-129.7608174232919
8.507065856,0.9991752135318359,-130.03046319734221
8.513715712,0.9992044091907935,-130.30026611635287
8.520365568,0.9992782380799416,-130.57080641510282
8.527015936,0.9993924396289152,-130.8427255814895
8.533665792,0.9995406952190975,-131.11645211483116
8.540315648,0.9997147339091161,-131.392413390183
8.546966016,0.9999047386435181,-131.67097209317348
8.553615872,1.0001001468755564,-131.9521748939018
8.56026624,1.0002899275864434,-132.23611542265138
8.566916096,1.0004634258116358,-132.52256760356067
8.573565952,1.0006108349395293,-132.81126480209073
8.58021632,1.0007239419157112,-133.10181090073667
8.586866176,1.0007961902238522,-133.39368070484
8.593516544,1.0008235961667693,-133.68630077152224
8.6001664,1.0008044751511223,-133.9790306125292
8.606816256,1.0007398982053721,-134.2712364966424
8.613466112,1.000633307361069,-134.56234713342894
8.620115968,1.0004906718026134,-134.85184262015656
8.626766848,1.0003199652885277,-135.1392385275215
8.633416704,1.0001306997950057,-135.4242327947912
8.64006656,0.9999334882572157,-135.70663159398572
8.646716416,0.9997393958378663,-135.9864042753728
8.653366272,0.9995593013892415,-136.26369610096646
8.660016128,0.9994033776211214,-136.5387259034497
