freq,mag,phase
6.0,1.0001914893564525,-163.84344616047554
6.002285568,1.0001041702168847,-163.99394202665925
6.004571648,1.000009853847808,-164.14309204673347
6.006857216,0.9999145322985734,-164.29083992052938
6.009142784,0.9998241547050876,-164.43718366408294
6.011428352,0.9997444676898449,-164.58227578455177
6.013714432,0.9996806218851588,-164.72625396466503
6.016,0.9996365771757958,-164.86943233405918
6.018285568,0.9996152020850129,-165.01209110623864
6.020571648,0.9996178196944502,-165.15458718817672
6.022857216,0.9996443727521559,-165.2972285495602
6.025142784,0.9996930542655128,-165.4403951134414
6.027428352,0.9997609410260222,-165.58438855459406
6.029714432,0.9998436284672755,-165.72945621499565
6.032,0.9999360093855854,-165.87571027406207
6.034285568,1.000032002023165,-166.0233255133724
6.036571648,1.0001256622202535,-166.17229884566422
6.038857216,1.0002109824827223,-166.3225016195156
6.041142784,1.0002827559317558,-166.4738466125696
6.043428352,1.000336154921026,-166.62603684096544
6.045714432,1.000367942278009,-166.77881024952208
6.048,1.0003759073608924,-166.93185287642655
6.050285568,1.0003598176456112,-167.0848167938692
6.052571648,1.0003204474817833,-167.23731475162316
6.054857216,1.0002603861396375,-167.38908544927196
6.057142784,1.0001833169550693,-167.5398068896911
6.059428352,1.0000942276361482,-167.6892931335851
6.061714432,0.9999986886965201,-167.8374019679233
6.064,0.9999027557598501,-167.98406376615048
6.066285568,0.9998126187011533,-168.12936493524936
6.068571648,0.9997339120790891,-168.27336141779182
6.070857216,0.9996715369900666,-168.41631427731966
6.073142784,0.9996297139081122,-168.55848128569158
6.075428352,0.9996109296074899,-168.70015762949112
6.077714432,0.9996164893705473,-168.84169546305887
6.08,0.999646046567605,-168.98346798260803
6.082285568,0.999697668392187,-169.12577988848795
6.084571648,0.9997681514844077,-169.26893377914254
6.086857216,0.9998530390064211,-169.41318865324465
6.089142784,0.9999468937100288,-169.55871086071093
6.091428352,1.0000437790474515,-169.70556971347872
6.093714432,1.000137616041266,-169.8537912894019
6.096,1.0002224190799998,-170.00327878575564
6.098285568,1.000292732346247,-170.15385878599977
6.100571648,1.0003443138566788,-170.3052886747285
6.102857216,1.0003735133694254,-170.45725597144752
6.105142784,1.0003788264859843,-170.60941954498517
6.107428352,1.0003596685138008,-170.7614968451013
6.109714432,1.0003173740542817,-170.91306124274126
6.112,1.0002544127700896,-171.06383609579635
6.114285568,1.0001750246874261,-171.2135384972334
6.116571648,1.000084032937472,-171.36196170114275
6.118857216,0.9999873293750574,-171.50898044578
6.121142784,0.9998909341217828,-171.65459568854584
6.123428352,0.9998010507528834,-171.79878042809284
6.125714432,0.999723410438421,-171.94171846807373
6.128,0.9996627965947277,-172.08359811242798
6.130285568,0.9996232069505534,-172.2247219014109
6.132571648,0.9996071169210642,-172.365395351911
6.134857216,0.999615609416911,-172.505976357407
6.137142784,0.9996482162453945,-172.6468180175554
6.139428352,0.9997027604369746,-172.78825906144513
6.141714432,0.9997758185568091,-172.9305766833988
6.144,0.9998628252789079,-173.07401706546543
6.146285568,0.9999581959347137,-173.21876313966803
6.148571648,1.0000559322556175,-173.36486691043763
6.150857216,1.0001497820412166,-173.51233618926628
6.153142784,1.0002339381807037,-173.66104750970624
6.155428352,1.000302855462784,-173.81085830413733
6.157714432,1.0003522254421107,-173.96146550808132
6.16,1.0003789691858131,-174.11262063164725
6.162285568,1.0003813068278715,-174.26392496019466
6.164571648,1.000359064288586,-174.415084238418
6.166857216,1.0003136811492574,-174.5656646355363
6.169142784,1.0002480630059027,-174.71545981052333
6.171428352,1.0001661784595777,-174.86409362870114
6.173714432,1.0000734453044333,-175.0114481568408
6.176,0.9999754924805043,-175.15736679388692
6.178285568,0.9998786866943893,-175.30182373966767
6.180571648,0.9997892237407049,-175.44491031859783
6.182857216,0.9997127278083687,-175.58675240681097
6.185142784,0.9996539667434522,-175.72755163834367
6.187428352,0.9996167207104543,-175.86760815446672
6.189714432,0.9996035243873175,-176.00725555801864
6.192,0.999615107478325,-176.14688610152595
6.194285568,0.9996508119909175,-176.2868053208494
6.196571648,0.9997082396572723,-176.42732054328653
6.198857216,0.9997839633305354,-176.56880482013372
6.201142784,0.9998730266442778,-176.7114373959963
6.203428352,0.9999698593059975,-176.85539005634024
6.205714432,1.0000683655181608,-177.0007295889733
6.208,1.0001623226270286,-177.1474137377685
6.210285568,1.0002454092354887,-177.29537211798797
6.212571648,1.0003128013018885,-177.4443633125475
6.214857216,1.0003600878238885,-177.59417785020943
6.217142784,1.0003840537959048,-177.74446261390057
6.219428352,1.0003834448011477,-177.89486997900158
6.221714432,1.0003580718317258,-178.04505833110358
6.224,1.0003095364183012,-178.194676240313
6.226285568,1.0002411488447067,-178.3434012330639
6.228571648,1.0001568448533857,-178.4909764088351
6.230857216,1.0000623852681725,-178.63723090290074
6.233142784,0.9999633645427678,-178.78203729851631
6.235428352,0.999866395623619,-178.92536699834469
6.237714432,0.9997772870372637,-179.06727978527945
6.24,0.999701994774749,-179.20801301753792
6.242285568,0.9996452257730863,-179.34770040059038
6.244571648,0.9996105385602031,-179.4867300256676
6.246857216,0.999600207750973,-179.62531192212523
6.249142784,0.9996149143648496,-179.76394257649008
6.251428352,0.999653701999129,-179.90290116942091
6.253714432,0.9997142332486749,179.95742974929703
6.256,0.9997925599593557,179.8168113653286
6.258285568,0.9998835854425919,179.67499114650593
6.260571648,0.999981940501759,179.53185386881222
6.262857216,1.0000810242784155,179.38729225014194
6.265142784,1.0001746907693356,179.2413815654713
6.267428352,1.0002570718702883,179.09422473324565
6.269714432,1.0003227863025816,178.94602269420446
6.272,1.0003675770539742,178.79706183768138
6.274285568,1.0003887832043585,178.64767767002652
6.276571648,1.0003851248033233,178.49817860548163
6.278857216,1.0003564799962097,178.34894575857496
6.281142784,1.0003049261823094,178.2003538494497
6.283428352,1.0002337222831883,178.05268224392347
6.285714432,1.0001471529732173,177.90620807017322
6.288,1.0000508598018214,177.76107380897503
6.290285568,0.9999508252041959,177.6174153806829
6.292571648,0.9998535864051699,177.47524255400148
6.294857216,0.9997651794290454,177.3344514801875
6.297142784,0.9996912378911086,177.194876999705
6.299428352,0.9996365380663395,177.0562814864056
6.301714432,0.9996045042485014,176.91838833893735
6.304,0.9995971872743681,176.78078920335707
6.306285568,0.9996151085528668,176.64318052138717
6.308571648,0.9996571733495364,176.50514304003036
6.310857216,0.999720655956947,176.36639201851492
6.313142784,0.9998015529177333,176.2266525900079
6.315428352,0.999894683431181,176.08567360753833
6.317714432,0.9999943011843276,175.94330823595027
6.32,1.0000940645726542,175.79956603895408
6.322285568,1.0001874546810174,175.65445169620682
6.324571648,1.0002686087127233,175.50809867407392
6.326857216,1.0003325067653979,175.36074360902307
6.329142784,1.000375066068038,175.21260496545972
6.331428352,1.0003933515791765,175.06410321441496
6.333714432,1.0003864693128086,174.9155263642936
6.336,1.0003546178718,174.76730627864643
6.338285568,1.000299927650731,174.6197444100269
6.340571648,1.0002258022284947,174.47313726298978
6.342857216,1.0001368400272228,174.32775462413295
6.345142784,1.0000389059373858,174.18377045034816
6.347428352,0.9999379297061403,174.04131047455175
6.349714432,0.999840561242952,173.90029980758388
6.352,0.9997528426790011,173.7606793216186
6.354285568,0.9996805374830755,173.62226547441355
6.356571648,0.9996279443592219,173.48481643273354
6.358857216,0.9995986650974694,173.34795438421023
6.361142784,0.9995944504921926,173.2114451495267
6.363428352,0.9996156909537494,173.07480954018362
6.365714432,0.9996609847952792,172.93774036438504
6.368,0.9997274251766908,172.79990041217212
6.370285568,0.9998109629428512,172.66100373765252
6.372571648,0.9999062191080864,172.52086604829896
6.374857216,1.0000070690221634,172.37932477221122
6.377142784,1.000107249211619,172.2363608248833
6.379428352,1.0002003040396807,172.09208265306066
6.381714432,1.000280233098413,171.94652540091755
6.384,1.0003422563498778,171.79997557790512
6.386285568,1.0003821903557613,171.65274625353172
6.388571648,1.0003974602123027,171.50511031249675
6.390857216,1.0003873431280195,171.35750835262522
6.393142784,1.0003521704171536,171.2102731181966
6.395428352,1.0002942550241358,171.06376293745768
6.397714432,1.0002173070100897,170.91826807121925
6.4,1.0001261569786497,170.77402980163697
6.402285568,1.0000265485730928,170.63119156723653
6.404571648,0.9999248463365952,170.48986577466775
6.406857216,0.9998274017108436,170.35004474408254
6.409142784,0.9997405923907389,170.21161628302997
6.411428352,0.9996698181084408,170.0743628162826
6.413714432,0.9996196806770192,169.93804636957373
6.416,0.9995932088572637,169.80230884229212
6.418285568,0.999592313306127,169.6668213052156
6.420571648,0.9996168435858245,169.53119781024515
6.422857216,0.9996654636092872,169.39508240757206
6.425142784,0.9997350215390457,169.2581720335923
6.427428352,0.9998210767340421,169.12014555427587
6.429714432,0.9999182192858925,168.98082037006316
6.432,1.0000203226804356,168.8401052065163
6.434285568,1.000120772732893,168.69792833003658
6.436571648,1.000213387916716,168.55442287113442
6.438857216,1.0002919801581165,168.40968010005145
6.441142784,1.000351989081173,168.2639892638432
6.443428352,1.0003891718380362,168.11761936255044
6.445714432,1.000401440555685,167.9709325568159
6.448,1.0003879174324153,167.82430717917018
6.450285568,1.0003492581407885,167.67810089879757
6.452571648,1.0002882087676406,167.53261961248117
6.454857216,1.0002084094730623,167.3882251364827
6.457142784,1.0001149096252826,167.24510993382174
6.459428352,1.0000138211161125,167.10350146874836
6.461714432,0.9999113039172066,166.96336734278887
6.464,0.9998141231659333,166.82471213971783
6.466285568,0.9997282138072062,166.68747854005966
6.468571648,0.9996591575781942,166.55139141290118
6.470857216,0.9996114602207521,166.4161831854742
6.473142784,0.9995879958834393,166.28155018746213
6.475428352,0.9995903605783698,166.14714239175578
6.477714432,0.999618382091724,166.0125220341634
6.48,0.9996703466732931,165.87733901677802
6.482285568,0.9997428585826189,165.74132988311752
6.484571648,0.9998316294371196,165.60417778421083
6.486857216,0.9999305781713201,165.46568622165134
6.489142784,1.0000338073711754,165.32578477114336
6.491428352,1.0001344856775223,165.1844048015933
6.493714432,1.0002264236172194,165.04169633133154
6.496,1.0003037462861255,164.89778616622215
6.498285568,1.000361485961523,164.75292703721243
6.500571648,1.0003958380695304,164.60743895763673
6.502857216,1.0004048662691558,164.46171449427027
6.505142784,1.0003878001977384,164.31604431573126
6.507428352,1.0003457940621057,164.17083236472195
6.509714432,1.000281477246917,164.02645902456518
6.512,1.0001988020188766,163.88317836947547
6.514285568,1.0001031926427835,163.74122962000556
6.516571648,1.000000502166694,163.60077601359606
6.518857216,0.9998974348603984,163.46183887518802
6.521142784,0.9998005045174077,163.32440801246022
6.523428352,0.9997157015804358,163.18836421292414
6.525714432,0.9996486797695806,163.05342447924352
6.528,0.9996035070135451,162.91939253454663
6.530285568,0.9995831442803502,162.78584646574149
6.532571648,0.999588840987322,162.65245207802417
6.534857216,0.9996204983119481,162.5188469159106
6.537142784,0.9996758075730018,162.3846379888255
6.539428352,0.9997515011185947,162.24953616867117
6.541714432,0.9998425871463823,162.113243064439
6.544,0.9999434876130056,161.97555900078194
6.546285568,1.0000476864966703,161.8364733119239
6.548571648,1.00014851862877,161.6959112612404
6.550857216,1.0002397665930511,161.55401135843627
6.553142784,1.0003154347408239,161.41093112761632
6.555428352,1.0003708585338258,161.2669247284413
6.557714432,1.0004022778356552,161.12233775925299
6.56,1.0004079698046795,160.97747907494292
6.562285568,1.0003873709533053,160.83283061117163
6.564571648,1.0003418570817342,160.68866685983144
6.566857216,1.0002742422403585,160.5453603005648
6.569142784,1.0001888254332791,160.40321900358987
6.571428352,1.0000910143707555,160.26242887625483
6.573714432,0.9999868725572005,160.12316063868943
6.576,0.9998833590146062,159.9854533567602
6.578285568,0.9997867283854224,159.84919157812368
6.580571648,0.9997031932110997,159.71434201340298
6.582857216,0.9996380973977333,159.5806080886345
6.585142784,0.9995957466311087,159.44768715053488
6.587428352,0.9995786661594356,159.3152664776662
6.589714432,0.9995879248133241,159.18291585087087
6.592,0.9996231636148104,159.0502770071276
6.594285568,0.9996820065150711,158.9170152724456
6.596571648,0.9997605927835971,158.7827862377841
6.598857216,0.9998543031345875,158.64734451820024
6.601142784,0.999956985483149,158.51052248432708
6.603428352,1.0000620126216828,158.3722222689786
6.605714432,1.0001629213664198,158.23246886369606
6.608,1.0002532335154963,158.0913403108712
6.610285568,1.0003272641115029,157.94909711527964
6.612571648,1.0003800869343282,157.8059468665454
6.614857216,1.0004084505953679,157.66225987421174
6.617142784,1.0004107629749863,157.51836215476104
6.619428352,1.0003864260563282,157.37466487074872
6.621714432,1.0003373328975758,157.23155536126316
6.624,1.0002665045991146,157.0893214303626
6.626285568,1.0001782539074637,156.94833375931563
6.628571648,1.000078285361985,156.8087191203538
6.630857216,0.9999729933481671,156.670651265327
6.633142784,0.999868980658177,156.53414784074812
6.635428352,0.9997727425843821,156.39914176433825
6.637714432,0.9996906888550352,156.2654549990583
6.64,0.9996278858992893,156.13289666003763
6.642285568,0.9995882606734537,156.0010933129971
6.644571648,0.9995744054432837,155.86975180099952
6.646857216,0.9995874832332772,155.73845215771894
6.649142784,0.9996263009285692,155.6068001863499
6.651428352,0.9996886134603689,155.47445083072796
6.653714432,0.9997703542485095,155.34115329903818
6.656,0.9998664297528601,155.20652679699154
6.658285568,0.9999708447348525,155.07055019531168
6.660571648,1.0000766704833948,154.93304015291983
6.662857216,1.0001775471948124,154.79404102549785
6.665142784,1.0002667582374123,154.65372377842226
6.667428352,1.000338760947734,154.51230146007777
6.669714432,1.0003890344447335,154.3699995732742
6.672,1.0004141775199114,154.22720176766293
6.674285568,1.0004128450763343,154.08424240610216
6.676571648,1.0003850094969828,153.94156577502326
6.678857216,1.0003322708040396,153.79949496514544
6.681142784,1.0002581725035709,153.65836894833188
6.683428352,1.0001670116610946,153.51849679068752
6.685714432,1.000065034043406,153.3800834389122
6.688,0.9999584063218586,153.2432061692816
6.690285568,0.999854154065619,153.10790787491368
6.692571648,0.9997586215076366,152.97411584977584
6.694857216,0.9996780679599367,152.84164457489123
6.697142784,0.9996176824107766,152.71023300937193
6.699428352,0.9995810531598542,152.5795892014775
6.701714432,0.9995708213366059,152.44931805782818
6.704,0.9995874566736911,152.31901260526672
6.706285568,0.9996298767581407,152.18838332491603
6.708571648,0.9996957024875456,152.05694275896798
6.710857216,0.9997805861845084,151.92448049787492
6.713142784,0.9998790165245299,151.79070255897736
6.715428352,0.9999850614772455,151.65549167720172
6.717714432,1.0000915574867193,151.5187953522036
6.72,1.000192113041775,151.38061984907958
6.722285568,1.0002802755291393,151.24108074710094
6.724571648,1.0003502882044344,151.10044889787622
6.726857216,1.000397793335081,150.95900442072804
6.729142784,1.000419707634453,150.8171061643246
6.731428352,1.0004146725256022,150.6750961439811
6.733714432,1.0003829469525167,150.53339532807954
6.736,1.0003264593707413,150.3923873995127
6.738285568,1.0002490603643566,150.2523887077962
6.740571648,1.0001551914255582,150.11367425278897
6.742857216,1.000051319502814,149.97641877509574
6.745142784,0.9999435411856865,149.8407597610154
6.747428352,0.9998390775130513,149.70666487632892
6.749714432,0.9997444704084792,149.57406475985613
6.752,0.9996654558411473,149.4427983107825
6.754285568,0.999607497475345,149.31254218102487
6.756571648,0.9995741406288564,149.18301174574822
6.758857216,0.9995673510038919,149.0538403400402
6.761142784,0.9995878276575121,148.92455664273174
6.763428352,0.999634114833321,148.79484798308164
6.765714432,0.9997034325282698,148.66435307593395
6.768,0.9997913383851166,148.5327331081264
6.770285568,0.9998921617142029,148.39978633006356
6.772571648,0.9999995575663208,148.26536733331406
6.774857216,1.0001068007093683,148.12942952026177
6.777142784,1.0002070559268816,147.99201093649893
6.779428352,1.000293730579549,147.85328367899274
6.781714432,1.0003616154155657,147.7134670416058
6.784,1.0004061423887283,147.5728625034546
6.786285568,1.00042471933321,147.4318469819792
6.788571648,1.00041588829315,147.29077094302093
6.790857216,1.0003802071970087,147.15008925247756
6.793142784,1.0003201601490646,147.01012415708894
6.795428352,1.000239338902089,146.87123480581565
6.797714432,1.0001429138650606,146.73367678537417
6.8,1.0000368801039983,146.5976024581358
6.802285568,0.99992834911974,146.46316179932208
6.804571648,0.9998237800887588,146.33026720823509
6.806857216,0.9997301593778064,146.19888289678502
6.809142784,0.9996530561604158,146.06879823239376
6.811428352,0.9995977404855894,145.93969340960598
6.813714432,0.999567695038557,145.8112787013192
6.816,0.99956465491767,145.68313794640284
6.818285568,0.999588923810529,145.55489639454703
6.820571648,0.9996392571089634,145.42613258838594
6.822857216,0.9997119890594893,145.29650449378545
6.825142784,0.9998028283412047,145.16572444123082
6.827428352,0.9999060719672562,145.033598448766
6.829714432,1.0000148877993347,144.89994129984112
6.832,1.0001226212594125,144.7647833073244
6.834285568,1.0002221981609765,144.62812580101414
6.836571648,1.0003074832527221,144.49015542514937
6.838857216,1.0003729327848108,144.35112275594926
6.841142784,1.000414471449179,144.21137106792034
6.843428352,1.0004292455365025,144.07125633186092
6.845714432,1.0004165525941513,143.93116174961438
6.848,1.0003770622691863,143.79145004427033
6.850285568,1.0003132510854018,143.65254625302896
6.852571648,1.000229153359388,143.51475072830556
6.854857216,1.0001301351443235,143.37835707994412
6.857142784,1.0000222703200994,143.24345577220777
6.859428352,0.9999128110943738,143.11019198239902
6.861714432,0.9998083289350432,142.97853240173563
6.864,0.999715662275448,142.84834273654505
6.866285568,0.9996406544883498,142.7194391417394
6.868571648,0.9995882441842645,142.59145770002766
6.870857216,0.9995614378492678,142.4641517068951
6.873142784,0.9995622994802492,142.33704685345424
6.875428352,0.99959069609223,142.20977641720881
6.877714432,0.9996447650397282,142.08193283982447
6.88,0.9997211510183425,141.9531940847813
6.882285568,0.9998149803984802,141.8232570782888
6.884571648,0.9999202938039595,141.69190430371907
6.886857216,1.000030467796205,141.55900983093292
6.889142784,1.0001383937840505,141.42459577682513
6.891428352,1.0002373621012806,141.288689997329
6.893714432,1.0003209845003602,141.15151125175427
6.896,1.0003839450891712,141.01327759187498
6.898285568,1.0004221366334085,140.8743542958645
6.900571648,1.0004333358962028,140.73510266259373
6.902857216,1.0004166179324356,140.59595989397445
6.905142784,1.000373133948893,140.45725634044513
6.907428352,1.0003054999983625,140.31939984544925
6.909714432,1.0002182400003317,140.18271207433563
6.912,1.000116467707929,140.0474681263281
6.914285568,1.0000070465719688,139.91376037613176
6.916571648,0.9998966481658468,139.78170771318585
6.918857216,0.9997925142984897,139.65125061969334
6.921142784,0.9997011133369862,139.52225452415823
6.923428352,0.9996283165123568,139.3945036120519
6.925714432,0.9995788512508411,139.267690643628
6.928,0.9995556517470556,139.14142380299674
6.930285568,0.9995605208558784,139.01533924656374
