freq,mag,phase
6.0,0.999829281355701,-161.16974506439146
6.024242176,0.999822562964846,-162.58156913450878
6.048484864,0.9998205519387091,-163.99311031565222
6.07272704,0.9998234486900754,-165.40444004062363
6.096969728,0.9998311589599679,-166.81556972465242
6.121211904,0.9998433927784782,-168.22659165750784
6.145454592,0.9998599348013079,-169.63747860490062
6.169696768,0.9998803073745306,-171.0482877102396
6.193939456,0.999904088544389,-172.459049780353
6.218181632,0.9999304073588671,-173.8697823794383
6.24242432,0.9999588587958586,-175.28050062145454
6.266666496,0.9999885383047387,-176.6912120637359
6.290909184,1.0000186130802422,-178.10193142550784
6.31515136,1.000048338169172,-179.51263352445858
6.339394048,1.000076922501319,179.07668691983068
6.363636224,1.000103680380741,177.66602328891616
6.387878912,1.0001277867122773,176.25543330574695
6.412121088,1.0001486507983683,174.84493845872254
6.436363776,1.0001655069545434,173.43458689622597
6.460605952,1.0001782684927236,172.02442320546356
6.48484864,1.0001864326803507,170.61445531893364
6.509090816,1.0001896969127084,169.2047826005379
6.533333504,1.0001879150474804,167.7954271627332
6.55757568,1.00018139125582,166.38645047368664
6.581818368,1.000170031808746,164.9778959488774
6.606060544,1.0001542397606766,163.56980241724128
6.630303232,1.0001344732289954,162.16224407800055
6.654545408,1.0001110838873826,160.75523220691647
6.678788096,1.0000849442175153,159.34881546289714
6.703030272,1.0000565893748687,157.94301257420142
6.72727296,1.0000267588064997,156.5378430346146
6.751515136,0.9999962567506953,155.1333385945594
6.775757824,0.9999658336435573,153.72949397354873
6.8,0.9999364885394454,152.3262949851944
6.824242176,0.9999088160443862,150.92373436255738
6.848484864,0.9998837487387267,149.5218306465687
6.87272704,0.9998617974231194,148.12051520598385
6.896969728,0.9998435283352223,146.71978573067543
6.921211904,0.9998295820345026,145.31962764063167
6.945454592,0.9998201754224919,143.91990004334556
6.969696768,0.9998157827502833,142.52071275576864
6.993939456,0.999816292853038,141.12192158350027
7.018181632,0.9998217980805499,139.72350021195325
7.04242432,0.9998321620172379,138.32540375547472
7.066666496,0.9998472108937927,136.92760828105074
7.090909184,0.999866507675274,135.53003351149414
7.11515136,0.9998893452520509,134.13270069556822
7.139394048,0.9999153794596193,132.73553669362036
7.163636224,0.999943773944101,131.33856214627195
7.187878912,0.9999738760911363,129.94167659269678
7.212121088,1.0000047978885016,128.54495753360217
7.236363776,1.0000358300403014,127.14834533232784
7.260605952,1.0000659244656604,125.75186809703078
7.28484864,1.0000945117598947,124.35555433256845
7.309090816,1.0001206647702645,122.95937002751455
7.333333504,1.0001438117832475,121.56338874998833
7.35757568,1.0001632443313442,120.16763299603984
7.381818368,1.0001785480074388,118.77212244403583
7.406060544,1.0001890663785138,117.37691374444358
7.430303232,1.0001947991531221,115.98206638946898
7.454545408,1.0001953578362872,114.58759262312272
7.478788096,1.0001908609938674,113.193553208475
7.503030272,1.000181330505356,111.80001774183663
7.52727296,1.0001670884906846,110.40700138150767
7.551515136,1.0001484063745918,109.01454759757108
7.575757824,1.0001259354690906,107.62273743741932
7.6,1.0001001655899728,106.23154059130889
7.624242176,1.0000716787572206,104.84104485246822
7.648484864,1.0000413083883037,103.45123105397354
7.67272704,1.0000100603487856,102.06210549053102
7.696969728,0.9999784207450175,100.67370843364905
7.721211904,0.999947553428479,99.28602393011991
7.745454592,0.9999179790031609,97.89903556214173
7.769696768,0.9998907853806368,96.51272269111135
7.793939456,0.9998664882917607,95.12705526135622
7.818181632,0.9998458263493938,93.74203396177809
7.84242432,0.9998293771836874,92.35757461685691
7.866666496,0.9998175491999874,90.97366177875224
7.890909184,0.9998106928609266,89.59024459200423
7.91515136,0.999809038431949,88.2072751227376
7.939394048,0.9998125262382714,86.82469489485479
7.963636224,0.9998212262299726,85.44245011965296
7.987878912,0.9998347086887346,84.06050387149165
8.012121088,0.9998528969019183,82.67881259309767
8.036363776,0.9998750489638236,81.29730784816327
8.060605952,0.9999007556727071,79.9159776736754
8.08484864,0.9999292630235506,78.53478483827597
8.109090816,0.9999598108302316,77.15368482161719
8.133333504,0.9999916164061375,75.77265995591438
8.15757568,1.0000238522665463,74.39173686847563
8.181818368,1.0000556051728673,73.01085889264706
8.206060544,1.0000860028740168,71.6300778910413
8.230303232,1.0001143193214113,70.24937914926947
8.254545408,1.0001397529248082,68.86878336768613
8.278788096,1.000161535714277,67.48834723756052
8.303030272,1.0001792377418834,66.10806382120835
8.32727296,1.0001922264782777,64.72799495896106
8.351515136,1.0002002422065648,63.34817255681728
8.375757824,1.0002029976630324,61.96864415286412
8.4,1.0002003778295665,60.589449597552935
8.424242176,1.0001925827171887,59.21063735659517
8.448484864,1.0001797075282346,57.83225901861537
8.47272704,1.0001620678639263,56.4543593678749
8.496969728,1.0001401192040718,55.076968652597586
8.521211904,1.0001145424956785,53.70010020357225
8.545454592,1.0000858734864346,52.32381655893473
8.569696768,1.000054964310207,50.948140663020354
8.593939456,1.0000226110647752,49.57306346876292
8.618181632,0.999989694692821,48.19857059825787
8.642423808,0.9999570667133274,46.82471124906664
8.666667008,0.9999256540167072,45.45144362802349
8.690909184,0.9998962382770156,44.07876879259079
8.71515136,0.9998696190955008,42.70661919282127
8.739393536,0.9998466458527752,41.33500169676096
8.763636736,0.9998276638105372,39.96384794494787
8.787878912,0.9998134663928355,38.59312834662554
8.812121088,0.9998042923228081,37.22279670671759
8.836363264,0.999800489045143,35.852777771600394
8.860606464,0.9998021602908062,34.483030080862676
8.88484864,0.9998091896745359,33.11349596938692
8.909090816,0.9998214132270627,31.744119482262416
8.933332992,0.9998386243936579,30.374853745305646
8.957576192,0.9998602509261922,29.005629382114442
8.981818368,0.9998858510098138,27.63642350567453
9.006060544,0.9999146324413483,26.267193227924825
9.03030272,0.9999459215530933,24.897894151283456
9.05454592,0.9999787743595968,23.528524525010702
9.078788096,1.0000123827793965,22.15903072086456
9.103030272,1.000045853390188,20.789423440797627
9.127272448,1.000078266970946,19.419717012553768
9.151515648,1.0001087532015156,18.04990111736089
9.175757824,1.000136549839817,16.68000382584099
9.2,1.0001607539088648,15.31004565668364
9.224242176,1.0001808454799535,13.940044258079363
9.248484352,1.0001961767581478,12.570043372931087
9.272727552,1.0002064496051657,11.20009162966738
9.296969728,1.0002111847761783,9.830235179717315
9.321211904,1.0002105742757739,8.46049617941458
9.34545408,1.0002042290644608,7.0909441909535325
9.36969728,1.0001924997372125,5.721612988143655
9.393939456,1.000175618682199,4.352527297980798
9.418181632,1.0001541570927548,2.983788366252667
9.442423808,1.000128531562388,1.615381248978108
9.466667008,1.0000994405231982,0.2473345155332374
9.490909184,1.0000677836061178,-1.1202998333754302
9.51515136,1.0000342533869029,-2.487515780127029
9.539393536,0.99999988287137,-3.8543266961321136
9.563636736,0.9999655133913824,-5.2207012600811105
9.587878912,0.9999319257684063,-6.586672316531212
9.612121088,0.9999002163582665,-7.952261072846562
9.636363264,0.9998712053143671,-9.317464720925198
9.660606464,0.999845685265399,-10.682346558526188
9.68484864,0.9998243103438196,-12.046934839712378
9.709090816,0.999807697056956,-13.411278899193368
9.733332992,0.9997963309847518,-14.775431828335664
9.757576192,0.9997904234223963,-16.1394573588007
9.781818368,0.9997902003380191,-17.503399987022743
9.806060544,0.9997957209477334,-18.86734541285126
9.83030272,0.9998067732309793,-20.2313126629558
9.85454592,0.999823270165388,-21.595389119618687
9.878788096,0.9998445794227715,-22.959628398100143
9.903030272,0.9998701734705577,-24.3240543026529
9.927272448,0.9998994634278928,-25.688734836480116
9.951515648,0.9999315133368244,-27.053687772277616
9.975757824,0.9999656968730763,-28.41898558247999
10.0,1.0000008856649893,-29.784592224919965
10.024242176,1.0000362727012602,-31.150545764574222
10.048484352,1.000070874607822,-32.51685948888704
10.072727552,1.000103688101058,-33.883498283159895
10.096969728,1.0001339644116485,-35.25048637553336
10.121211904,1.0001607821004017,-36.617759956796846
10.14545408,1.0001833656486858,-37.985327452739085
10.16969728,1.0002011422095058,-39.35312154390306
10.193939456,1.0002137768901176,-40.721136336151524
10.218181632,1.000220657902243,-42.08928755564961
10.242423808,1.0002216872904086,-43.45753144953784
10.266667008,1.0002168546384849,-44.82585050765821
10.290909184,1.000206254992887,-46.19415553629001
10.31515136,1.0001901797273023,-47.5624312492742
10.339393536,1.000168923939542,-48.930621440419735
10.363636736,1.000143115930722,-50.298674731251126
10.387878912,1.000113478970742,-51.66656502041629
10.412121088,1.0000807211258087,-53.03425722042363
10.436363264,1.0000457623119117,-54.40174605421032
10.460606464,1.0000093940759922,-55.76900915241376
10.48484864,0.9999728533568439,-57.1360419990665
10.509090816,0.9999368717686223,-58.502855500897546
10.533332992,0.9999025003634977,-59.86946949267615
10.557576192,0.999870618801581,-61.23589985547737
10.581818368,0.999842170660625,-62.60217025146593
10.606060544,0.999817789770781,-63.96834209461636
10.63030272,0.9997982862108822,-65.33444983581258
10.65454592,0.999784220658603,-66.70054072388048
10.678788096,0.9997757035815988,-68.06667275044819
10.703030272,0.9997733142583082,-69.43290758366616
10.727272448,0.9997768891442417,-70.7993209364839
10.751515648,0.9997864602302788,-72.16595787147699
10.775757824,0.9998017647082398,-73.53287777557624
10.8,0.999822386595919,-74.90014556110448
10.824242176,0.9998477127905565,-76.26780201388442
10.848484352,0.9998772116339596,-77.63590603776089
10.872727552,0.9999100826445365,-79.00446788372389
10.896969728,0.999945333829109,-80.37357315562521
10.921211904,0.9999821367494273,-81.74318433836889
10.94545408,1.000019437833961,-83.11337000055073
10.96969728,1.0000562191584212,-84.48410080440922
10.993939456,1.0000915572305198,-85.85536607219106
11.018181632,1.0001244658393946,-87.22718331925196
11.042423808,1.000154111598165,-88.59949398457795
11.066667008,1.000179526893843,-89.97229678423761
11.090909184,1.0002002164844912,-91.3455426530986
11.11515136,1.000215371227587,-92.71917664509996
11.139393536,1.0002247789904608,-94.09316430918216
11.163636736,1.000228135942405,-95.4674474872889
11.187878912,1.0002252789300197,-96.84196557453042
11.212121088,1.0002162970315793,-98.21667752610679
11.236363264,1.0002013496262594,-99.59150510746973
11.260606464,1.0001809005353353,-100.96644215123872
11.28484864,1.0001554546264997,-102.34137920829917
11.309090816,1.0001256511313004,-103.71631911385902
11.333332992,1.0000923246506268,-105.0912324941766
11.357576192,1.0000563558891347,-106.4660636476914
11.381818368,1.0000186638039223,-107.84080413965526
11.406060544,0.9999802841088706,-109.2154460557686
11.43030272,0.9999422916901399,-110.58999705933964
11.45454592,0.9999056828365915,-111.96445740812568
11.478788096,0.9998713637883182,-113.33886290990046
11.503030272,0.999840286331791,-114.7132102532884
11.527272448,0.9998134493730951,-116.08755888745638
11.551515648,0.9997914477359345,-117.46192831810082
11.575757824,0.9997750119820824,-118.83642174369399
11.6,0.9997644060011784,-120.21103926153074
11.624242176,0.9997602065118989,-121.58586502346868
11.648484352,0.9997623119608384,-122.96096137230585
11.672727552,0.9997707434709533,-124.33637163861864
11.696969728,0.999785509883419,-125.71218203481236
11.721211904,0.999806000020163,-127.08844037355381
11.74545408,0.9998317384518901,-128.46518785360715
11.76969728,0.9998621763670461,-129.84249825444988
11.793939456,0.9998963457397635,-131.22039437911207
11.818181632,0.9999334711110236,-132.59890112527145
11.842423808,0.9999725389662799,-133.9780627687377
11.866667008,1.0000125371935311,-135.3578886897077
11.890909184,1.000052300039876,-136.73837271659661
11.91515136,1.0000908808424338,-138.119528825889
11.939393536,1.0001271696335794,-139.50133287515143
11.963636736,1.0001603228516351,-140.88375193047563
11.987878912,1.0001891974691317,-142.2667482119498
12.012121088,1.0002131980985232,-143.65031694115874
12.036363264,1.0002315693263304,-145.03437190331712
12.060606464,1.0002439004541561,-146.41886635027984
12.08484864,1.0002497363370637,-147.80374856964798
12.109090816,1.0002489712124625,-149.18895550035546
12.133332992,1.0002415921041174,-150.57442567898647
12.157576192,1.0002276585347862,-151.9600854519729
12.181818368,1.0002075938477226,-153.34588733320996
12.206060544,1.0001819857415213,-154.73177321423043
12.23030272,1.0001514018604452,-156.11768509774058
12.25454592,1.0001167284654717,-157.50359820916592
12.278788096,1.0000786983302317,-158.88945642754348
12.303030272,1.000038533326869,-160.2752524828192
12.327272448,0.9999971715123996,-161.66093681227014
12.351515648,0.9999556725746395,-163.04653822406075
12.375757824,0.9999152829823762,-164.43203108078558
12.4,0.9998769928140697,-165.81745133346334
12.424242176,0.9998418300437087,-167.20279630082544
12.448484352,0.9998107991392589,-168.58812367336475
12.472727552,0.9997847427919078,-169.97346251327951
12.496969728,0.999764418015283,-171.35885602664052
12.521211904,0.9997502576719903,-172.7443495362274
12.54545408,0.9997427351109572,-174.1300281120487
12.56969728,0.9997421710176929,-175.5159578455606
12.593939456,0.9997485383296381,-176.90216427580773
12.618181632,0.999761569439259,-178.28872581919924
12.642423808,0.99978111230909,-179.67570626257594
12.666667008,0.9998066843221465,178.93683170890958
12.690909184,0.9998375810497482,177.54883329789746
12.71515136,0.9998730010796907,176.1602791035484
12.739393536,0.9999119977875096,174.77112693552826
12.763636736,0.9999534341216134,173.3813245881375
12.787878912,0.9999963746720081,171.99087544785496
12.812121088,1.0000397278368147,170.59975270561745
12.836363264,1.0000821585891717,169.20797846793397
12.860606464,1.0001227038300002,167.8155749318046
12.88484864,1.0001600291806612,166.42255215698907
12.909090816,1.00019351036375,165.02894270825342
12.933332992,1.00022166993353,163.63482182920325
12.957576192,1.0002442689987756,162.24021318035523
12.981818368,1.0002604560171735,160.84516997928148
13.006060544,1.0002696537390745,159.44980091137822
13.03030272,1.0002717504775327,158.05411814887051
13.05454592,1.000266637647623,156.65822451339525
13.078788096,1.0002543048092174,155.26218818667513
13.103030272,1.0002352217990045,153.8660780655377
13.127272448,1.0002096572999677,152.46996130813605
13.151515648,1.0001783812556997,151.07388009272523
13.175757824,1.0001421952438716,149.67792759010356
13.2,1.0001020277561252,148.28211348943537
13.224242176,1.000058858329777,146.88650121056656
13.248484352,1.000013883369427,145.49110150025268
13.272727552,0.9999684295075664,144.0959318163433
13.296969728,0.999923458607519,142.70100940885084
13.321211904,0.9998801913810677,141.30631634323152
13.34545408,0.9998400389140465,139.91184389462833
13.36969728,0.9998039994323585,138.5175551949418
13.393939456,0.9997728395048978,137.12342609336858
13.418181632,0.9997476495422333,135.72938055131897
13.442423808,0.9997291333576367,134.3354111094532
13.466667008,0.999717653927781,132.94141695915573
13.490909184,0.9997137337598406,131.54736042813687
13.51515136,0.9997173164353215,130.1531630824539
13.539393536,0.9997285754996614,128.75876964904873
13.563636736,0.9997472355378274,127.36409110310477
13.587878912,0.9997725297064566,125.96907401575568
13.612121088,0.9998042274949912,124.57368651411848
13.636363264,0.9998413047216227,123.17784754186215
13.660606464,0.9998828364800052,121.78151414084243
13.68484864,0.9999277031214161,120.38468893162553
13.709090816,0.9999747927752816,118.9873095711686
13.733332992,1.0000227514557625,117.58939945179645
13.757576192,1.0000703554896075,116.19092258730902
13.781818368,1.0001164493634347,114.7919178206506
13.806060544,1.0001596644086779,113.39238130189699
13.83030272,1.0001988741502015,111.99240075731605
13.85454592,1.0002329933258676,110.59196408003889
13.878788096,1.000261079744504,109.1911725206859
13.903030272,1.0002823175417057,107.79006016656069
13.927272448,1.0002962012831718,106.38871446321619
13.951515648,1.000302079985703,104.98722057104202
13.975757824,1.0003000933678434,103.58563617951204
14.0,1.000289938882432,102.18404548423928
