freq,mag,phase
6.0,1.0001255940409348,72.33786806459179
6.002287616,0.9999026115008469,72.18221290802644
6.004575232,0.9996859258353613,72.02974821575962
6.006862848,0.9994890858813098,71.88031072714178
6.009150464,0.9993246587086028,71.73350797778409
6.011438592,0.9992031019973984,71.58881168338456
6.013726208,0.9991322654297542,71.44550621798412
6.016013824,0.9991164448512075,71.30285351555897
6.01830144,0.9991568362947766,71.16002559002595
6.020589056,0.9992509681609387,71.01623209006097
6.022876672,0.9993928318804322,70.87073703209929
6.025164288,0.999573344269443,70.72289305585393
6.027451904,0.999781208169397,70.57223294334247
6.029740032,1.0000032495516038,70.41844808354412
6.032027648,1.0002253141103352,70.26144012634474
6.034315264,1.000433348172588,70.1013012116193
6.03660288,1.0006142008039043,69.93834932395055
6.038890496,1.0007563948951048,69.77305869275027
6.041178112,1.0008507915051157,69.60605958238003
6.043465728,1.0008915328740244,69.4380575707772
6.045753344,1.0008760343693248,69.26988249840564
6.04804096,1.0008050559063957,69.10235152525462
6.050329088,1.0006832624250908,68.93618965039427
6.052616704,1.0005180945475751,68.77213764710075
6.05490432,1.0003202808358318,68.61071130426787
6.057191936,1.0001020248077641,68.45230841501215
6.059479552,0.9998772794314887,68.29712876486099
6.061767168,0.9996603369876492,68.14516343601653
6.064054784,0.9994648941358671,67.99619737524046
6.0663424,0.9993033843812239,67.84986361207254
6.068630016,0.9991860498949251,67.70555098893435
6.070918144,0.9991205939507348,67.56257410716375
6.07320576,0.9991109606490088,67.42014588472837
6.075493376,0.9991578294764982,67.27746066257271
6.077780992,0.999258344282667,67.13372085452262
6.080068608,0.999406181235206,66.98816056474627
6.082356224,0.9995918793523793,66.84017227207703
6.08464384,0.9998037126806696,66.68931372643993
6.086931456,1.000028278316783,66.53525809265787
6.089219584,1.0002513020175694,66.37797321289473
6.0915072,1.0004586307592491,66.21755669599953
6.093794816,1.0006371502554299,66.05432307896265
6.096082432,1.0007756357261022,65.88880495077969
6.098370048,1.0008650329675672,65.7216114118534
6.100657664,1.000900022557199,65.55353499288739
6.10294528,1.0008780429497524,65.38534312056481
6.105232896,1.0008004979423186,65.21788411461854
6.107520512,1.0006723998867777,65.0519221123101
6.10980864,1.0005017233834077,64.88810174015694
6.112096256,1.0002992704043714,64.72699521863508
6.114383872,1.000077820770259,64.56897118794471
6.116671488,0.9998513655603326,64.41421500938526
6.118959104,0.9996343520272001,64.26266715106252
6.12124672,0.9994404931343664,64.11410772693861
6.123534336,0.9992821726654149,63.968128202764156
6.125821952,0.9991693797090417,63.82413500695801
6.128109568,0.9991093897276684,63.68138898200758
6.130397696,0.9991059703964272,63.53910605432573
6.132685312,0.9991595493642539,63.39648257218141
6.134972928,0.9992665392182144,63.25268708406623
6.137260544,0.9994203741841223,63.106968213453655
6.13954816,0.999611096444283,62.95874264259109
6.141835776,0.9998268565722366,62.80758580395884
6.144123392,1.0000537921480082,62.653210170977694
6.146411008,1.0002776190186322,62.49552884248803
6.148699136,1.0004841002331761,62.33474515953502
6.150986752,1.0006601128166535,62.17116259186133
6.153274368,1.0007946047161687,62.00534081466161
6.155561984,1.0008788848656622,61.83790687732872
6.1578496,1.0009077268385742,61.66964627351424
6.160137216,1.0008791773602916,61.50137151825121
6.162424832,1.000795123377365,61.33392202690341
6.164712448,1.0006607566578567,61.16804599828072
6.167000064,1.0004844409990692,61.00441996022245
6.169288192,1.0002774997193675,60.8435775862032
6.171575808,1.0000529322232072,60.685851741527046
6.173863424,0.9998251018158987,60.53142631328139
6.17615104,0.9996081878104245,60.380220161955656
6.178438656,0.9994160994436964,60.232011275880886
6.180726272,0.9992611313767004,60.08630586065887
6.183013888,0.999153049276783,59.94253543344523
6.185301504,0.9990988759459517,59.79993460014311
6.18758912,0.9991019253380378,59.657705452567846
6.189877248,0.9991621163415871,59.515025672018965
6.192164864,0.9992756899241739,59.37107445776531
6.19445248,0.9994354118551674,59.22514449163092
6.196740096,0.999631307310852,59.076613732522205
6.199027712,0.9998507649893752,58.925051117085225
6.201315328,1.0000799366490816,58.77023619674647
6.203602944,1.0003043107428657,58.61209925501472
6.20589056,1.0005096783490435,58.45083545832584
6.208178688,1.0006829944112592,58.28682486721425
6.210466304,1.000813173359956,58.12060676272085
6.21275392,1.0008922512393463,57.952847843218215
6.215041536,1.0009148311115135,57.78433433416787
6.217329152,1.000879633986626,57.61592699360881
6.219616768,1.0007888647297465,57.44841718610204
6.221904384,1.0006481092576762,57.282566395554184
6.224192,1.0004663362387145,57.119072510194805
6.226479616,1.0002550093206566,56.958408587059814
6.228767744,1.0000275349251,56.80092816619637
6.23105536,0.9997983081816163,56.64674738462478
6.233342976,0.9995817675778884,56.49581348196134
6.235630592,0.9993917733108529,56.34785018949601
6.237918208,0.9992404007950068,56.20235370265651
6.240205824,0.9991373022462138,56.05870455451423
6.24249344,0.9990890174550905,55.91617119512095
6.244781056,0.9990986999041419,55.77389639297189
6.247068672,0.9991656877614626,55.63109681595757
6.2493568,0.9992858906911926,55.48690650842705
6.251644416,0.9994515719579029,55.34062294530814
6.253932032,0.9996523988016479,55.191681021983186
6.256219648,0.9998753909405104,55.03962914794603
6.258507264,1.0001066016152032,54.88427898599612
6.26079488,1.0003313604093729,54.72559079262554
6.263082496,1.000535329237231,54.563796267418624
6.265370112,1.0007057387053793,54.39925852127509
6.26765824,1.0008315249988453,54.23256422334382
6.269945856,1.0009048871640618,54.064431831779864
6.272233472,1.0009210711720704,53.89561838235414
6.274521088,1.0008790709238593,53.72698207651504
6.276808704,1.0007814998763513,53.559350199232625
6.27909632,1.0006344895586161,53.39347970426181
6.281383936,1.0004472088303327,53.23001344408086
6.283671552,1.0002316834380007,53.06944792316775
6.285959168,1.0000014052254989,52.91215899465244
6.288247296,0.9997710573095197,52.758183194428916
6.290534912,0.9995551465679032,52.60741663834073
6.292822528,0.9993675714774543,52.45961532113502
6.295110144,0.9992199503809006,52.31424097173698
6.29739776,0.999122068645644,52.17065349809037
6.299685376,0.9990799850484127,52.02808904861207
6.301972992,0.9990963881021597,51.88569419486896
6.304260608,0.9991703127274708,51.74264521471698
6.306548224,0.9992971038177858,51.59810960815308
6.308836352,0.9994687240360292,51.451397454849754
6.311123968,0.999674312828444,51.30193341900328
6.313411584,0.9999009152619609,51.149315437877505
6.3156992,1.0001339463206536,50.9933315050239
6.317986816,1.0003586935963344,50.83401663684723
6.320274432,1.000561155536508,50.67158381506832
6.322562048,1.0007281274616808,50.506452296468176
6.324849664,1.000849312078997,50.33922652091528
6.327137792,1.0009168404814315,50.17061580327019
6.329425408,1.0009264854942994,50.00142063127099
6.331713024,1.000877494197342,49.832498092107095
6.33400064,1.0007730688922136,49.66466862060199
6.336288256,1.0006196793705726,49.49870361644484
6.338575872,1.0004270555758938,49.335214855215206
6.340863488,1.000207420420974,49.17471626714376
6.343151104,0.9999745131370358,49.01749424695728
6.34543872,0.9997433241949711,48.86365555497135
6.347726848,0.9995283326304344,48.71302298601305
6.350014464,0.9993432164501933,48.56531222160182
6.35230208,0.9991999127216041,48.419976674433414
6.354589696,0.99910741222187,48.2763382775497
6.356877312,0.9990716812493903,48.13365344177494
6.359164928,0.9990950317357085,47.9910089678142
6.361452544,0.9991759643029283,47.84763257147454
6.36374016,0.9993094167914495,47.702664780959196
6.366027776,0.9994869454509019,47.555415136971504
6.368315904,0.9996972810009944,47.405358314541495
6.37060352,0.9999270878781009,47.25205746858591
6.372891136,1.0001617600652342,47.09537800244977
6.375178752,1.0003863987150978,46.93533156654337
6.377466368,1.0005868141048786,46.77220127861765
6.379753984,1.0007503934222428,46.606390409577386
6.3820416,1.0008665835129775,46.438545670058076
6.384329216,1.0009279736874241,46.269371495072285
6.386617344,1.000930771264093,46.09972648637782
6.38890496,1.0008747951181844,45.930457972235494
6.391192576,1.000763426295574,45.76236464063912
6.393480192,1.000603755365349,45.596236153876426
6.395767808,1.0004058060667573,45.43267349310195
6.398055424,1.0001822163298635,45.272185609722975
6.40034304,0.9999469522860248,45.11497171410991
6.402630656,0.9997151733249651,44.9611704399624
6.404918272,0.9995013688365931,44.81057718862483
6.4072064,0.999319204948441,44.66285778154697
6.409494016,0.999180294144546,44.51750324459885
6.411781632,0.9990935764580073,44.37372606435859
6.414069248,0.9990644506737143,44.23081526805078
6.416356864,0.9990948290972227,44.08786832614381
6.41864448,0.9991829277340125,43.94404505585634
6.420932096,0.9993230942875337,43.79854101777398
6.423219712,0.9995064830616692,43.65067535305231
6.425507328,0.9997213663940299,43.49989379238785
6.427795456,0.9999542557644072,43.345835797144396
6.430083072,1.0001902325351821,43.18834541053961
6.432370688,1.0004145275135177,43.027499187806676
6.434658304,1.0006127506084364,42.863553016588206
6.43694592,1.0007723691945165,42.696991207762714
6.439233536,1.0008832235960228,42.5284324371705
6.441521152,1.000938218049102,42.35866742171616
6.443808768,1.0009341175286,42.18851194571297
6.446096896,1.0008709004983167,42.01881596939892
6.448384512,1.0007525276979028,41.850404122094524
6.450672128,1.0005864702980152,41.68405379847065
6.452959744,1.0003833406417182,41.520344719895505
6.45524736,1.0001558700221815,41.359756715065224
6.457534976,0.9999185849029985,41.20253913556567
6.459822592,0.9996864213638885,41.04868414232956
6.462110208,0.9994741804897723,40.89807394079687
6.464397824,0.9992953171879557,40.75029306666671
6.466685952,0.9991611266390004,40.60477802419411
6.468973568,0.999080380636757,40.46079427054129
6.471261184,0.9990581294787857,40.31755716377845
6.4735488,0.9990958970027507,40.174189247808
6.475836416,0.999191181924176,40.029836876586394
6.478124032,0.9993380657670373,39.88370969438306
6.480411648,0.9995271635528988,39.73510247779188
6.482699264,0.9997465710355186,39.583502164474105
6.48498688,0.999982306902834,39.42857617137838
6.487275008,1.0002193849006993,39.27018874155565
6.489562624,1.0004427943860106,39.108417614930275
6.49185024,1.0006383924479674,38.94361480126542
6.494137856,1.0007937091684311,38.77621304974141
6.496425472,1.0008989806626238,38.60690126931046
6.498713088,1.0009474810759798,38.436447232763825
6.501000704,1.000935972831386,38.26569638216827
6.50328832,1.0008653443204625,38.09552398190872
6.505576448,1.0007399158053027,37.92674437350332
6.507864064,1.000567672048064,37.7601134866775
6.51015168,1.000359441215074,37.59619692455241
6.512439296,1.0001283919410209,37.43546540498819
6.514726912,0.9998892078821372,37.2781361925419
6.517014528,0.9996571062228538,37.124201905675925
6.519302144,0.9994467133785235,36.97345968837823
6.52158976,0.9992714779204797,36.82552440945626
6.523877376,0.9991426397959301,36.679779223267595
6.526165504,0.9990682412756218,36.5354943418951
6.52845312,0.9990532270245467,36.3918597074494
6.530740736,0.9990984246371929,36.24797149359959
6.533028352,0.9992012083877622,36.102984603353974
6.535315968,0.9993547654671581,35.95609419514537
6.537603584,0.9995496465345265,35.80666234735926
6.5398912,0.9997732165058774,35.65412792493724
6.542178816,1.000011606495161,35.49823821428541
6.544466432,1.000249439759366,35.33887134536866
6.54675456,1.000471587481796,35.17610848127289
6.549042176,1.0006641580196514,35.01031235877236
6.551329792,1.000814798311752,34.84202117462652
6.553617408,1.0009139713631503,34.671855512949776
6.555905024,1.0009553744885114,34.500648165636036
6.55819264,1.000936387557632,34.329253799516714
6.560480256,1.0008580807630043,34.158547908138345
6.562767872,1.0007255809330131,33.98933390082698
6.565056,1.0005469862609384,33.822368919975816
6.567343616,1.0003338147012315,33.65818198884106
6.569631232,1.0000994857822447,33.49725535155664
6.571918848,0.9998588046164896,33.339755576976124
6.574206464,0.9996271309927245,33.18565377219949
6.57649408,0.9994191853054085,33.03473489472323
6.578781696,0.9992481229250733,32.88656738192604
6.581069312,0.9991249722635076,32.740491415968414
6.583356928,0.9990574418861405,32.59581680681822
6.585645056,0.9990499892188568,32.451648202835564
6.587932672,0.9991029562317298,32.30711416809454
6.590220288,0.9992132607450727,32.161396073588996
6.592507904,0.9993736852892781,32.01364232700496
6.59479552,0.9995741894947479,31.863273300439875
6.597083136,0.9998019145562173,31.709711801830434
6.599370752,1.0000423994377439,31.552754849930935
6.601658368,1.0002804051125895,31.392263755765207
6.603945984,1.0005010141769135,31.228419588433987
6.606234112,1.0006899133803568,31.06157853915083
6.608521728,1.0008352464645742,30.892274345976535
6.610809344,1.0009278194402038,30.72121135884095
6.61309696,1.0009616415613745,30.549203312822804
6.615384576,1.000934747160302,30.37708447935408
6.617672192,1.0008485646965501,30.205801563565466
6.619959808,1.0007086514551564,30.03610421938794
6.622247424,1.0005238158741743,29.868737025699854
6.624535552,1.0003058082130578,29.704266104511742
6.626823168,1.0000684707766645,29.54305961492606
6.629110784,0.9998266787099884,29.385328832047364
6.6313984,0.9995960059293479,29.231026876644034
6.633686016,0.9993910017270702,29.07983306205479
6.635973632,0.9992247770319826,28.931342200322042
6.638261248,0.9991079128077116,28.784883570205842
6.640548864,0.9990479183790748,28.639691410330812
6.64283648,0.9990485549630187,28.494901123691413
6.645124608,0.9991098107355573,28.349635722150758
6.647412224,0.9992278628319343,28.20302808516057
6.64969984,0.9993952313754066,28.054322311779828
6.651987456,0.9996011938240914,27.902859895033885
6.654275072,0.9998327082751708,27.748172338751957
6.656562688,1.000075115799496,27.59000870509528
6.658850304,1.0003129649007563,27.428311503469804
6.66113792,1.0005310846447086,27.26328013421818
6.663426048,1.0007157040317578,27.09528574086593
6.665713664,1.0008550475034337,26.924906722164383
6.66800128,1.0009403511728254,26.752855186243647
6.670288896,1.0009660356515842,26.579965899112832
6.672576512,1.0009306063769556,26.407123276966693
6.674864128,1.0008362071074661,26.235184470718828
6.677151744,1.0006887517681848,26.0649587152195
6.67943936,1.0004976701890818,25.897163481287272
6.681726976,1.0002750623560683,25.732355117513134
6.684015104,1.0000350329872114,25.57086143856775
6.68630272,0.9997927935942534,25.412858105855562
6.688590336,0.9995638219123001,25.258237809739523
6.690877952,0.9993625814120449,25.106734560049414
6.693165568,0.9992019698674894,24.957841842430096
6.695453184,0.9990922815198129,24.810879419352823
6.6977408,0.999040473819083,24.665075485227824
6.700028416,0.9990498785694766,24.519542374694158
6.702316032,0.9991198015348479,24.373411072723727
6.70460416,0.9992459293537709,24.225814398457832
6.706891776,0.9994203539662448,24.075996463700484
6.709179392,0.9996317393141618,23.92330909458018
6.711467008,0.9998667097587284,23.767341500413817
6.713754624,1.000110361642702,23.607855578205307
6.71604224,1.000347159405121,23.444838927281886
6.718329856,1.0005620538434812,23.27850431136761
6.720617472,1.0007413393671123,23.10925577953413
6.7229056,1.000873677180952,22.93772988571322
6.725193216,1.0009507322356255,22.76462888291352
6.727480832,1.0009673950874465,22.590819294417283
6.729768448,1.000922744361939,22.4171710355132
6.732056064,1.0008195567319271,22.244556467399025
6.73434368,1.000664368811304,22.073790151043347
6.736631296,1.0004669844505327,21.905550451160053
6.738918912,1.000240039979306,21.74035098156758
6.741206528,0.9999978019606571,21.578528806212933
6.743494656,0.9997558983262604,21.42021753897371
6.745782272,0.9995294696787032,21.26526547379792
6.748069888,0.9993331532765278,21.11337361733096
6.750357504,0.9991794600353975,20.963990187358103
6.75264512,0.9990780931949625,20.816438003766105
6.754932736,0.9990356248719254,20.6699272029527
6.757220352,0.999054713150947,20.523517524817155
6.759507968,0.9991342423123137,20.376377950741013
6.761795584,0.999269066666959,20.227599874219585
6.764083712,0.9994506051519234,20.076493586700234
6.766371328,0.9996672717065125,19.922450433417843
6.768658944,0.9999052945780118,19.76504295958376
6.77094656,1.0001494779854339,19.60410057680302
6.773234176,1.0003841565014147,19.439605637800764
6.775521792,1.0005945242854253,19.271843897002622
6.777809408,1.0007671015336914,19.10126536782138
6.780097024,1.000890995016533,18.928471957309522
6.782385152,1.0009581954474664,18.754256129574294
6.784672768,1.000964552052981,18.579457788997495
6.786960384,1.00090959596802,18.4049945589162
6.789248,1.0007967738439378,18.231702722277447
6.791535616,1.0006333055210248,18.06038912383707
6.793823232,1.0004296538484208,17.891694175123277
6.796110848,1.0001986420988946,17.726129592578395
6.798398464,0.9999551054577039,17.563976089615302
6.80068608,0.9997145156828574,17.405329919726505
6.802974208,0.9994922897267771,17.250035328162575
6.805261824,0.9993026363848919,17.097678307049595
6.80754944,0.9991575730367585,16.947740795271507
6.809837056,0.999066478118256,16.799497956711022
6.812124672,0.9990352028667447,16.652099953522157
6.814412288,0.9990656312499978,16.504672011049006
6.816699904,0.9991558816134939,16.35631396934878
6.81898752,0.9993002645859175,16.206198443705176
6.821275136,0.9994893779660023,16.053614502964713
6.823563264,0.9997111814358107,15.897973614684755
6.82585088,0.9999514326288796,15.73891347176241
6.828138496,1.0001948581173994,15.576279652664583
6.830426112,1.000425749649112,15.410129747410108
6.832713728,1.000629517091127,15.24079731090886
6.835001344,1.0007930709897415,15.068713617357906
6.83728896,1.0009059150059016,14.894583929875306
6.839576576,1.0009610020553221,14.719190356893266
6.841864704,1.00095471839478,14.543410883028368
6.84415232,1.0008875245222049,14.368125025718932
6.846439936,1.00076361595163,14.194169237425454
6.848727552,1.0005910345099394,14.022363037355788
6.851015168,1.0003807908160494,13.853278221649214
6.853302784,1.0001462685445786,13.687416601547028
6.8555904,0.9999025368134046,13.524998478327518
6.857878016,0.9996653361430986,13.366055381114052
6.860165632,0.9994496938099883,13.210378952165371
6.86245376,0.9992694492519908,13.05756968129033
6.864741376,0.9991362951699091,12.90698374316274
6.867028992,0.9990587566216207,12.75790799803885
6.869316608,0.9990418074839766,12.609487479564379
6.871604224,0.999086411046159,12.460786161675308
6.87389184,0.9991897480406025,12.310983869309737
6.876179456,0.999345243055702,12.159208903727455
6.878467072,0.9995426580115421,12.004819300587554
6.880754688,0.9997693496503172,11.847257643112775
6.883042816,1.0000108275416617,11.686207753029015
6.885330432,1.0002513380934277,11.521584172039056
6.887618048,1.0004755610378517,11.353510135704395
6.889905664,1.000669082327806,11.182346830193323
6.89219328,1.000819270802068,11.00861348912238
6.894480896,1.0009167259671705,10.833018279443955
6.896768512,1.0009550820562876,10.656400145065222
6.899056128,1.0009319612772558,10.47960768393172
6.901344256,1.000848790201021,10.303542364984397
6.903631872,1.0007110624995545,10.129076471888952
6.905919488,1.000527536549138,9.95691027171535
6.908207104,1.0003102463987723,9.787622164207725
6.91049472,1.0000729519840288,9.621625306762187
6.912782336,0.9998313730531936,9.459107994386143
6.915069952,0.9996008131138148,9.300006360471652
6.917357568,0.9993964562718921,9.144043480576904
6.919645184,0.9992314226245502,8.990749282822843
6.921933312,0.999116391958889,8.839459638922278
6.924220928,0.9990589438145967,8.689390517533333
6.926508544,0.9990625998469721,8.539652046904969
6.92879616,0.9991271598168007,8.389344278207416
6.931083776,0.9992484132597562,8.237606494879952
