freq,mag,phase
6.0,1.0007273200650049,152.05127857952706
6.002287104,1.000971168562047,151.89018727238425
6.004574208,1.0011533486311346,151.7260795183731
6.006861312,1.0012629006530596,151.5598883843257
6.009147904,1.0012927508141198,151.39272346808306
6.011435008,1.0012411304470412,151.2257712078026
6.013722112,1.001111081143574,151.06018008884158
6.016009216,1.0009109602470716,150.8969798053798
6.01829632,1.0006532908928563,150.73716557550668
6.020583424,1.0003544787031822,150.58141971250197
6.022870016,1.0000332235431044,150.43020698321394
6.02515712,0.9997098316032759,150.2837333344455
6.027444224,0.999404921010523,150.14188929863266
6.029731328,0.9991378082747405,150.00422462605462
6.032018432,0.9989253972268324,149.8701104201208
6.034305536,0.9987811826627828,149.7386410974904
6.036592128,0.9987144947689104,149.6087376386931
6.038879232,0.9987294070542039,149.47928795693392
6.041166336,0.9988251196919763,149.34905380519365
6.04345344,0.9989956412280263,149.2169154307266
6.045740544,0.9992298109384814,149.08189813931617
6.048027648,0.9995132400334189,148.94314113802744
6.05031424,0.9998276194861411,148.80007132838196
6.052601344,1.0001532202071404,148.6524088025695
6.054888448,1.0004694041190674,148.5001045293
6.057175552,1.0007560534111477,148.34348685969226
6.059462656,1.0009950779536305,148.18308046431213
6.06174976,1.0011714731063517,148.0197112328147
6.064036352,1.0012740258818111,147.85435952382727
6.066323456,1.0012961855020877,147.68814431745943
6.06861056,1.001236488884274,147.5222477691187
6.070897664,1.0010988769208677,147.3578273563042
6.073184768,1.0008917997489901,147.19591894567174
6.075471872,1.000628406617476,147.0374589635908
6.077758464,1.0003252841378572,146.8831584278716
6.080045568,1.0000018519477003,146.73345145305012
6.082332672,0.9996780032951481,146.58847809137964
6.084619776,0.9993748051275266,146.44811548494613
6.08690688,0.999111381679996,146.31192995057086
6.089193984,0.9989041821761323,146.17919330185651
6.091481088,0.998766689931248,146.04905664511043
6.09376768,0.998707546324589,145.92034276140578
6.096054784,0.998730590893432,145.79197678308847
6.098341888,0.9988341463722468,145.66272072951023
6.100628992,0.9990120102271539,145.53145325941716
6.102916096,0.9992527242557923,145.3971724124656
6.1052032,0.9995411288073687,145.2590963797619
6.107489792,0.9998587255789253,145.11665161048174
6.109776896,1.000185524240557,144.96955361449199
6.112064,1.000500830893903,144.8178304567099
6.114351104,1.0007846678943066,144.66184783816388
6.116638208,1.0010191902676024,144.50207624465762
6.118925312,1.001189408667388,144.3394588267315
6.121211904,1.001284637429593,144.17492715511705
6.123499008,1.0012988245490204,144.00963409636782
6.125786112,1.0012311011882342,143.84480648969816
6.128073216,1.001085628499791,143.68152470964878
6.13036032,1.0008715784441706,143.52093309688738
6.132647424,1.0006024050009708,143.36383129558624
6.134934016,1.000295300537121,143.2109827707329
6.13722112,0.9999695056859883,143.06275325362813
6.139508224,0.9996457526299445,142.9192967409572
6.141795328,0.999344389179825,142.78040702366715
6.144082432,0.999084695120381,142.64566324138272
6.146369536,0.9988831653878636,142.51432923553523
6.148656128,0.9987524938278275,142.38545893400158
6.150943232,0.9987011864972737,142.25795296769286
6.153230336,0.9987322844098896,142.13064134462064
6.15551744,0.998844193937486,142.00232616160275
6.157804544,0.9990295364606787,141.87187518955255
6.160091648,0.9992766241591245,141.738320676926
6.162378752,0.999569790893843,141.60088591281425
6.164665344,0.9998905267590174,141.4590353466128
6.166952448,1.0002182806687587,141.31249302031202
6.169239552,1.0005326742972585,141.16131802523114
6.171526656,1.0008134451545092,141.00589087684318
6.17381376,1.0010431035194125,140.84678471068318
6.176100864,1.0012068691147689,140.68485889130508
6.178387456,1.0012945893223986,140.52116504333748
6.18067456,1.0013005242435136,140.35682850727684
6.182961664,1.0012245364613934,140.19304405823988
6.185248768,1.0010711336846632,140.0309385528074
6.187535872,1.0008500434704108,139.87160682413963
6.189822976,1.0005752490521636,139.71587657022366
6.192109568,1.0002642812286717,139.56444837030256
6.194396672,0.999936414718899,139.41772202470668
6.196683776,0.9996126301388809,139.2757414860938
6.19897088,0.9993134520894178,139.13835896026467
6.201257984,0.9990579466693066,139.00503642031705
6.203545088,0.9988621186723335,138.87503164935157
6.20583168,0.9987387656816868,138.74742302599537
6.208118784,0.998695392527782,138.62110544048423
6.210405888,0.998735019204066,138.49480408849502
6.212692992,0.9988551028085175,138.36739111266692
6.214980096,0.9990480257056812,138.2377625731715
6.2172672,0.9993014925911798,138.1048975242351
6.219553792,0.9995995251397862,137.96807715966685
6.221840896,0.9999231904235923,137.82676103858424
6.224128,1.0002517869482572,137.6807307272634
6.226415104,1.0005649453736085,137.53010817900255
6.228702208,1.0008424555802165,137.37522429658725
6.230989312,1.0010668715445779,137.2167448097227
6.233275904,1.0012240436404327,137.05551826138708
6.235563008,1.001303981296475,136.89263227485773
6.237850112,1.0013016132774801,136.72922769639402
6.240137216,1.0012170471765804,136.5664668603528
6.24242432,1.0010557239583233,136.40551930438212
6.244711424,1.0008276272625998,136.2474763137444
6.246998528,1.0005472289894957,136.0931089977508
6.24928512,1.0002321658924183,135.94310225977387
6.251572224,0.9999024985976926,135.79783274700594
6.253859328,0.9995790999808483,135.65735604454403
6.256146432,0.9992822978152693,135.52142103788626
6.258433536,0.9990312288385392,135.38952885560272
6.26072064,0.998841563324322,135.2608905514732
6.263007232,0.9987255173386118,135.1345185810581
6.265294336,0.9986905355837384,135.00929238490917
6.26758144,0.9987388039310765,134.88401393091058
6.269868544,0.9988671736557209,134.75746812840416
6.272155648,0.9990676958419467,134.62859218330226
6.274442752,0.999327610336429,134.49639088920492
6.276729344,0.9996303536160921,134.36014450478217
6.279016448,0.9999567462946914,134.21935100061222
6.281303552,1.000286194956504,134.0738064927719
6.283590656,1.0005977020698518,133.92367638072008
6.28587776,1.000871651370248,133.76933891907262
6.288164864,1.0010906632490686,133.61142504571328
6.290451456,1.0012407583408154,133.45088886264884
6.29273856,1.0013127307252687,133.28879550917324
6.295025664,1.0013017920578873,133.12629598560596
6.297312768,1.0012085491219354,132.96457816609873
6.299599872,1.0010391404354837,132.8047808022909
6.301886976,1.0008039089605536,132.64799086436417
6.304173568,1.0005179080277313,132.49499981633193
6.306460672,1.0001992395028898,132.34642563597842
6.308747776,0.9998678979826132,132.2026433908354
6.31103488,0.9995450402874507,132.06363316198778
6.313321984,0.9992509482673807,131.92913004080316
6.315609088,0.9990044493502266,131.79861780460146
6.317896192,0.9988211703043778,131.67130402746682
6.320182784,0.9987128910108671,131.54613447771675
6.322469888,0.9986864042949588,131.4220239749969
6.324756992,0.9987434320625834,131.29766703049768
6.327044096,0.998880366735729,131.17200940905653
6.3293312,0.9990886594639136,131.04381594454665
6.331618304,0.9993548259075361,130.91223981490867
6.333904896,0.9996622615717687,130.77650487279183
6.336192,0.9999912004167613,130.63618398044272
6.338479104,1.0003210480883655,130.4911410266518
6.340766208,1.0006308640062622,130.34144427819692
6.343053312,1.0009009064996146,130.18760492211317
6.345340416,1.001114144786086,130.03028925815875
6.347627008,1.00125702420021,129.870423717803
6.349914112,1.0013206863390132,129.70910508274002
6.352201216,1.0013009418670107,129.54751528260587
6.35448832,1.0011989385058124,129.38681852427848
6.356775424,1.0010213582317233,129.22820167904723
6.359062528,1.0007791119911107,129.07264141096843
6.36134912,1.000487694544861,128.9209994462738
6.363636224,1.0001652801465357,128.77386571772513
6.365923328,0.9998324594695774,128.63151365889277
6.368210432,0.9995103204466654,128.49396540207874
6.370497536,0.9992194044692088,128.36090553637317
6.37278464,0.9989778244972205,128.23178046398021
6.375071232,0.9988012144510449,128.10573922603396
6.377358336,0.9987009852463441,127.98175521172874
6.37964544,0.9986832217515467,127.85867408092011
6.381932544,0.9987491534811861,127.73529487981659
6.384219648,0.9988948211522886,127.61038735786148
6.386506752,0.9991105785612089,127.48291010676775
6.388793344,0.999383228819214,127.35189970376877
6.391080448,0.9996951191425812,127.21664919150014
6.393367552,1.0000266055145044,127.07677560614327
6.395654656,1.000356632464842,126.93212990624927
6.39794176,1.000664350734842,126.78289372423015
6.400228864,1.0009302610091326,126.62951758043421
6.402515968,1.0011374854509343,126.47277862669777
6.40480256,1.0012729234238744,126.31355621356488
6.407089664,1.0013279299179745,126.15301215922439
6.409376768,1.0012991757444534,125.99230301458951
6.411663872,1.0011884276324974,125.83263216398908
6.413950976,1.0010024846990173,125.67513956748799
6.41623808,1.0007531860333827,125.52085264394246
6.418524672,1.0004562766833047,125.37053722688
6.420811776,1.000130539237675,125.22481342455102
6.42309888,0.9997963257244239,125.08390909749458
6.425385984,0.9994753350770091,124.94778882940797
6.427673088,0.9991875644545641,124.8161607197663
6.429960192,0.9989513333345855,124.68838769122549
6.432246784,0.9987817848645976,124.5635844483786
6.434533888,0.9986897292859742,124.44073268964623
6.436820992,0.9986809034315259,124.31868770771027
6.439108096,0.998756009663534,124.19619588484741
6.4413952,0.9989103072286035,124.07204540607611
6.443682304,0.9991339670093506,123.9452106053207
6.445968896,0.9994127983842881,123.81471730263944
6.448256,0.9997290742262532,123.67993282975209
6.450543104,1.0000628126429532,123.54048722233595
6.452830208,1.000392906956866,123.39620548132032
6.455117312,1.000698187526746,123.24739463885956
6.457404416,1.0009595263050444,123.09447424023651
6.459691008,1.001160342448211,122.93822531679884
6.461978112,1.0012880461760987,122.77967008941721
6.464265216,1.0013343867853255,122.61986562178774
6.46655232,1.0012964378791256,122.46001704676964
6.468839424,1.00117661027366,122.3013598554751
6.471126528,1.0009824449126186,122.14503145624624
6.473413632,1.000726024145329,121.99196133046601
6.475700224,1.000423815546237,121.84299087221598
6.477987328,1.0000946628339307,121.69866777303616
6.480274432,0.999759674715934,121.55917719038278
6.482561536,0.9994397428126864,121.42448781059221
6.48484864,0.9991555565309552,121.29423546832939
6.487135744,0.9989249619015644,121.16777554260237
6.489422336,0.9987627047845588,121.04423070032098
6.49170944,0.998679066728108,120.92252086763797
6.493996544,0.998679411595022,120.80144106186809
6.496283648,0.9987638980510762,120.67977696302577
6.498570752,0.9989268327282462,120.55634054127808
6.500857856,0.9991582852150631,120.43009125831645
6.503144448,0.9994433289723511,120.3000952109101
6.505431552,0.9997638821419905,120.16572488342152
6.507718656,1.0000996724799935,120.0266342753377
6.51000576,1.0004293290709276,119.88274008440939
6.512292864,1.0007320640843769,119.73427663932566
6.514579968,1.000988678732014,119.58177938562551
6.51686656,1.0011829749572063,119.42606241386046
6.519153664,1.0013025281325623,119.26808360617554
6.521440768,1.0013399213199012,119.10903003445475
6.523727872,1.0012925609991876,118.95006338720276
6.526014976,1.0011635027118937,118.79239627339236
6.52830208,1.00096098814367,118.63717197451095
6.530588672,1.0006976307846416,118.48535941650074
6.532875776,1.0003900987321808,118.33771768000038
6.53516288,1.0000579166425274,118.19476554429151
6.537449984,0.999722112064441,118.05668843609239
6.539737088,0.9994038764677137,117.9233965110981
6.542024192,0.9991235877841402,117.7945352924651
6.544310784,0.9988989121141523,117.66935910156795
6.546597888,0.9987441619685848,117.54702732535245
6.548884992,0.9986692862227852,117.42637061585808
6.551172096,0.9986789885895563,117.30623185029894
6.5534592,0.9987729315858813,117.1853749564145
6.555746304,0.9989448667057309,117.06262395057621
6.558033408,0.9991839551664143,116.93692688108834
6.56032,0.9994750592283975,116.80735783914938
6.562607104,0.9997997487390554,116.67336754304857
6.564894208,1.000137380933282,116.53461367742914
6.567181312,1.000466499017311,116.39100880737642
6.569468416,1.0007662808467859,116.24289280654028
6.57175552,1.0010178479186913,116.09078520626575
6.574042112,1.0012051969208609,115.93555573067933
6.576329216,1.0013164176044178,115.77818905831737
6.57861632,1.0013445113590935,115.61982724771138
6.580903424,1.0012876108630893,115.4617426064835
6.583190528,1.0011494606858349,115.30504594355708
6.585477632,1.0009385027119964,115.1509607244557
6.587764224,1.0006681134702653,115.00037458088607
6.590051328,1.0003556096674504,114.85402599266676
6.592338432,1.0000205451959006,114.71243634181968
6.594625536,0.9996841697742005,114.5757534398241
6.59691264,0.9993679221709063,114.44388082455572
6.599199744,0.9990916141906026,114.31633916818005
6.601486336,0.998873199918212,114.19244218197771
6.60377344,0.9987264036838205,114.07122903714135
6.606060544,0.9986605511839574,113.95161106336225
6.608347648,0.9986799138549334,113.83239220670087
6.610634752,0.9987832141750755,113.71230212689052
6.612921856,0.9989640852563668,113.59018044613248
6.615208448,0.9992108990088087,113.46497084692561
6.617495552,0.9995079987453916,113.33579716185022
6.619782656,0.9998365428775023,113.20215472088218
6.62206976,1.0001757391078194,113.06366384652078
6.624356864,1.000504019708534,112.92036088334089
6.626643968,1.0008007393284994,112.77252528762133
6.628931072,1.0010467860843824,112.62083303342555
6.631217664,1.0012267986749082,112.46604347591138
6.633504768,1.0013293637817147,112.3092492334611
6.635791872,1.0013479707483035,112.15159189224188
6.638078976,1.0012813625170207,111.99432806223149
6.64036608,1.0011338474872693,111.83864488276608
6.642653184,1.0009145460384643,111.68562790827698
6.644939776,1.0006373111482698,111.53626798492546
6.64722688,1.0003198593210785,111.39123959763425
6.649513984,0.9999821529183014,111.2510013385955
6.651801088,0.9996455099991066,111.11571303081655
6.654088192,0.9993312927609096,110.98517219423087
6.656375296,0.9990596996058455,110.8589557092602
6.658661888,0.9988477350936942,110.7362782419617
6.660948992,0.9987090800096059,110.61621279205849
6.663236096,0.9986525240755989,110.49761130786129
6.6655232,0.9986816544171466,110.37923546211519
6.667810304,0.9987947450203873,110.25985367745207
6.670097408,0.9989845715818287,110.13829927107687
6.672384,0.9992390273868063,110.01354581539496
6.674671104,0.999542091843398,109.88476021442615
6.676958208,0.9998744082925808,109.75137630007778
6.679245312,1.0002149862206695,109.61312844596405
6.681532416,1.000542052596893,109.47006319070887
6.68381952,1.000835150303484,109.32252979614965
6.686106112,1.0010755016876929,109.17114769025638
6.688393216,1.0012480390205687,109.01679966788052
6.69068032,1.0013416177597658,108.86057660551704
6.692967424,1.001350575340989,108.70361812980094
6.695254528,1.001274084232854,108.54717123556433
6.697541632,1.001117220471816,108.3924485205083
6.699828224,1.0008896049768634,108.24054828647618
6.702115328,1.0006056360469981,108.09237236756677
6.704402432,1.0002834229515685,107.94863077944268
6.706689536,0.9999430682800087,107.80974013946276
6.70897664,0.9996065056952632,107.67581559273482
6.711263744,0.999294906926912,107.54660765702282
6.713550848,0.9990279611382832,107.42168637905667
6.71583744,0.9988229455874437,107.30021656255694
6.718124544,0.998692626831791,107.18122479787327
6.720411648,0.9986455850611616,107.0635842471542
6.722698752,0.9986848202406019,106.94601601246966
6.724985856,0.9988076626934799,106.82730132231617
6.72727296,0.9990063781353408,106.70627747508276
6.729559552,0.9992685026144681,106.58193669913496
6.731846656,0.9995772751384878,106.45343890834583
6.73413376,0.9999131837929552,106.3202940173505
6.736420864,1.0002547647828397,106.18227172646073
6.738707968,1.0005804684611064,106.0394098572635
6.740995072,1.0008696232134497,105.89210611189809
6.743281664,1.001104008998243,105.74103912610384
6.745568768,1.001268592212671,105.58711937756014
6.747855872,1.0013531436159149,105.43141709392609
6.750142976,1.0013521184769598,105.27512513923557
6.75243008,1.0012656362236032,105.11950373318734
6.754717184,1.0010991784408878,104.96574559455095
6.757003776,1.0008632241168276,104.81491101189404
6.75929088,1.0005725015263556,104.6679351630057
6.761577984,1.0002455525076095,104.52549904881222
6.763865088,0.9999030787114932,104.38789462032855
6.766152192,0.9995668545423172,104.25531431456345
6.768439296,0.9992580529149525,104.12743544950814
6.770725888,0.9989963306416805,104.00374964936576
6.773012992,0.9987984173453489,103.8834686173947
6.775300096,0.9986769737722108,103.76553136891108
6.7775872,0.9986397285875764,103.64876489382625
6.779874304,0.99868891199744,103.5319919281907
6.782161408,0.9988216879737846,103.41389705906705
6.784448512,0.9990295253245584,103.29337091376141
6.786735104,0.9992992520523902,103.16935322232514
6.789022208,0.9996135484380305,103.04114895271445
6.791309312,0.9999526712744867,102.90818334814308
6.793596416,1.0002950948525084,102.77031999266792
6.79588352,1.000619051836056,102.62761836994325
6.798170624,1.0009040321823979,102.48054165986372
6.800457216,1.0011319464412685,102.32977458369
6.80274432,1.0012884548495666,102.17623700281172
6.805031424,1.00136352411162,102.02104070726905
6.807318528,1.0013524027158087,101.86540855279755
6.809605632,1.0012558882428144,101.71061068180354
6.811892736,1.0010798573952122,101.55777339674216
6.814179328,1.000835516492276,101.40803030211777
6.816466432,1.000538256251908,101.26223038774944
6.818753536,1.0002069757337881,101.12104066696851
6.82104064,0.999862487762065,100.98476710641812
6.823327744,0.9995267854913953,100.85349135622556
6.825614848,0.9992211790543998,100.72689521497331
6.82790144,0.9989649083999053,100.60446036658345
6.830188544,0.9987746026309604,100.48526963418946
6.832475648,0.9986621421485685,100.36835902596526
6.834762752,0.9986348550354442,100.25248897257771
6.837049856,0.9986944058222134,100.13641297820678
6.83933696,0.9988372243697772,100.01887704172694
6.841623552,0.9990539529517131,99.8987723608179
6.843910656,0.999331077841292,99.77507797544668
6.84619776,0.9996509168979528,99.64706028688794
6.848484864,0.9999931222922428,99.514282544992
6.850771968,1.0003360459443766,99.37652789582985
6.853059072,1.0006579595938396,99.23396514601242
6.855345664,1.000938392336211,99.08707265897665
6.857632768,1.001159539750718,98.93656333569866
6.859919872,1.0013075313295468,98.78338710130944
6.862206976,1.0013729101745297,98.62871184927879
6.86449408,1.0013515467559635,98.47372257052974
6.866781184,1.001244665686966,98.31968737159228
6.869068288,1.0010590949403666,98.16780547561356
6.87135488,1.0008064946401665,98.01911028431013
6.873641984,1.0005028752198757,97.87450343897788
6.875929088,1.0001672639424732,97.73453340821811
6.878216192,0.9998211119882126,97.5995697935203
6.880503296,0.9994863252905283,97.46958030368765
6.8827904,0.9991841825647875,97.34425252474472
6.885076992,0.9989337907957564,97.22300370622982
6.887364096,0.9987512118871189,97.10491518173185
6.8896512,0.9986481885144036,96.98895212821128
6.891938304,0.9986311652508437,96.87391778325663
6.894225408,0.9987011630529911,96.75849516491675
6.896512512,0.9988540016803394,96.64149233582016
6.898799104,0.9990797685265865,96.5217636129494
6.901086208,0.9993641924611971,96.39832688776389
6.903373312,0.999689361861106,96.27049591944156
6.905660416,1.0000343752508802,96.13780209828573
6.90794752,1.0003775344948675,96.0001285088585
6.910234624,1.0006970324570952,95.85766254149374
6.912521216,1.0009725429730538,95.71091734514825
6.91480832,1.001186664206955,95.56064089843245
6.917095424,1.0013259463199842,95.40782536547128
6.919382528,1.001381284134865,95.25362335068208
6.921669632,1.0013494042003683,95.09926016798319
6.923956736,1.0012321540775155,94.94601840219501
