freq,mag,phase
6.0,1.0006763376751402,-18.4793219470674
6.015122944,1.0004195213263483,-19.016311579884718
6.030245888,1.000144381377756,-19.55035029220841
6.045368832,0.9998624033753437,-20.08131889760872
6.060491264,0.9995856228277422,-20.60917865706828
6.075614208,0.999325943686066,-21.13404742272329
6.090737152,0.9990946448367524,-21.65615596692594
6.105860096,0.998901909661642,-22.176005571484453
6.12098304,0.9987560169605896,-22.6940440455041
6.136105984,0.998663430285834,-23.210861442700782
6.151228928,0.9986279981078323,-23.7271434275399
6.16635136,0.9986516029481741,-24.243550983720436
6.181474304,0.99873337838988,-24.76088342962485
6.196597248,0.9988696467823078,-25.279680070320115
6.211720192,0.9990544502902203,-25.800684214624475
6.226843136,0.9992804825806374,-26.324367863830194
6.24196608,0.9995374661302642,-26.851155047403772
6.257089024,0.9998144785497868,-27.381402344808045
6.272211968,1.000099809566986,-27.91526092986108
6.2873344,1.0003808818377016,-28.452703982026456
6.302457344,1.000645753245548,-28.993750451582326
6.317580288,1.0008831161593066,-29.537948878388935
6.332703232,1.0010825090805937,-30.08503639389263
6.347826176,1.0012351486097222,-30.634480546399004
6.36294912,1.0013349521308532,-31.185706161522454
6.378072064,1.0013770167830687,-31.738003069452624
6.393194496,1.0013596771128306,-32.29071957687721
6.40831744,1.0012835153537505,-32.84314847794508
6.423440384,1.001151749949291,-33.394613602729585
6.438563328,1.0009699633543307,-33.94443602347057
6.453686272,1.0007456715173864,-34.492113421476866
6.468809216,1.0004888739244464,-35.03718577492671
6.48393216,1.0002101462429294,-35.57928303860326
6.499054592,0.9999215882196303,-36.11832423254621
6.514177536,0.9996355844119551,-36.65413001220722
6.52930048,0.9993645861576055,-37.186840428511154
6.544423424,0.9991203410638646,-37.71671523112413
6.559546368,0.9989132030396828,-38.24417228575489
6.574669312,0.9987523919543472,-38.769636928835624
6.589792256,0.9986447392898793,-39.29373738481785
6.604914688,0.9985953354604968,-39.817141451671596
6.620037632,0.998605968863427,-40.340553849157686
6.635160576,0.9986767786408781,-40.864680855393544
6.65028352,0.998804386683302,-41.3902474231179
6.665406464,0.9989835617306221,-41.91791730559605
6.680529408,0.9992066427164378,-42.44821959169476
6.695652352,0.9994640715356801,-42.9816803884293
6.710775296,0.9997448293302779,-43.51860194629619
6.725897728,1.000036715893566,-44.059208172761764
6.741020672,1.000327261410274,-44.603540391128675
6.756143616,1.0006039498733965,-45.151562790051806
6.77126656,1.0008550267407657,-45.70295990830341
6.786389504,1.0010693981469836,-46.257412636056934
6.801512448,1.0012378182195045,-46.814413229977994
6.816635392,1.0013531847275896,-47.37338701183486
6.831757824,1.001410428786256,-47.93364253315791
6.846880768,1.001406717186774,-48.49454040724662
6.862003712,1.001342292195922,-49.055282072691405
6.877126656,1.0012198225395492,-49.615229109081575
6.8922496,1.001044473585722,-50.17363888750314
6.907372544,1.000823498367506,-50.73000277211176
6.922495488,1.00056648597479,-51.283796514370586
6.93761792,1.0002843980899543,-51.834642754304916
6.952740864,0.999989287838756,-52.38231015111224
6.967863808,0.9996936839946536,-52.92671650654151
6.982986752,0.9994105115443057,-53.467910132290555
6.998109696,0.9991519324013035,-54.006146972021156
7.01323264,0.9989288648673575,-54.54176974813634
7.028355584,0.998751537636636,-55.07526840514307
7.043478016,0.9986273067757975,-55.607179331590345
7.05860096,0.9985619650311841,-56.13823683722568
7.073723904,0.9985579761679377,-56.6691164321306
7.088846848,0.9986159294248721,-57.20060102324051
7.103969792,0.9987335917987242,-57.73336643930199
7.119092736,0.9989057101573087,-58.268129951471806
7.13421568,0.999124998241226,-58.80551577885383
7.149338624,0.9993821094476992,-59.34602303323828
7.164461056,0.9996660740098106,-59.89002633191487
7.179584,0.9999647849951627,-60.4377905239245
7.194706944,1.0002652479694947,-60.98943890036226
7.209829888,1.0005545841439547,-61.54482284976646
7.224952832,1.0008205733772322,-62.10385339832905
7.240075776,1.001051552625785,-62.666121118649244
7.25519872,1.0012373907679988,-63.23113046087393
7.270321152,1.0013702982521995,-63.79836818717741
7.285444096,1.0014445053675374,-64.3671180724912
7.30056704,1.0014564318289731,-64.93668439231564
7.315689984,1.0014056673928027,-65.5063200101014
7.330812928,1.0012941839300995,-66.07531129199504
7.345935872,1.0011266176123625,-66.64290208207503
7.361058816,1.0009102012791016,-67.20850991197221
7.376181248,1.000653935074012,-67.77164859212104
7.391304192,1.000368730495591,-68.33179525397573
7.406427136,1.0000668427180435,-68.88876956681996
7.42155008,0.9997611051459867,-69.44238795599163
7.436673024,0.9994648934612934,-69.99267941045787
7.451795968,0.9991907798817355,-70.53985700594028
7.466918912,0.9989506641607449,-71.0842315448391
7.482041344,0.998754809324915,-71.62626595371962
7.497164288,0.998612177856967,-72.16655527989855
7.512287232,0.9985284279291561,-72.70578385179682
7.527410176,0.998507832791818,-73.24460915341582
7.54253312,0.9985510774051272,-73.7838519693717
7.557656064,0.9986567116597272,-74.32426269896564
7.572779008,0.9988200257497356,-74.8665710606956
7.587901952,0.9990342167182396,-75.41139808198444
7.603024384,0.9992902600575968,-75.95934196841382
7.618147328,0.9995771515544756,-76.5107907215049
7.633270272,0.9998824618097625,-77.06606624907403
7.648393216,1.0001933018138642,-77.62533635339483
7.66351616,1.0004962491990244,-78.18854902788908
7.678639104,1.0007783686480891,-78.75553855863711
7.693762048,1.0010273067267603,-79.32599842746173
7.70888448,1.0012324949255391,-79.89945743525053
7.724007424,1.0013851603773352,-80.47533951111467
7.739130368,1.001478414309041,-81.05306182164863
7.754253312,1.0015081507516521,-81.63178817906618
7.769376256,1.0014732699601832,-82.21078167981288
7.7844992,1.0013748456553804,-82.78931841937865
7.799622144,1.001217052817286,-83.36667104547796
7.814744576,1.001006327670847,-83.94209865998296
7.82986752,1.0007517785687001,-84.51512730955733
7.844990464,1.000464184611084,-85.08521564852997
7.860113408,1.0001557176883007,-85.652060702275
7.875236352,0.9998396901705495,-86.21548685564812
7.890359296,0.9995295166499115,-86.77547186514396
7.90548224,0.9992386268650542,-87.33213959996623
7.920604672,0.9989794814065763,-87.8858341441553
7.935727616,0.9987633705561471,-88.43695624994021
7.95085056,0.9985997127740259,-88.98610426826751
7.965973504,0.99849565208595,-89.53393032373324
7.981096448,0.9984558108325509,-90.08115772711737
7.996219392,0.9984819439531785,-90.62862690394016
8.011342336,0.9985733077492887,-91.17704947186996
8.02646528,0.9987260741354597,-91.7272327409588
8.041587712,0.9989336164993444,-92.27986375789128
8.056710656,0.9991873095535683,-92.83552122801346
8.0718336,0.9994762597766647,-93.39474017438097
8.086956544,0.9997881201965657,-93.95783483386155
8.102079488,1.0001095074676616,-94.52499994095913
8.117202432,1.0004267541055836,-95.09629295540788
8.132325376,1.000726299137739,-95.67159137453986
8.147447808,1.000995051023041,-96.25055979799586
8.162570752,1.0012216487760397,-96.83280498264348
8.177693696,1.0013963305355063,-97.41773849282046
8.19281664,1.001511215296425,-98.00476484043268
8.207939584,1.0015616202876922,-98.5930752874367
8.223062528,1.0015449497285935,-99.18191538868253
8.238185472,1.0014618916730087,-99.77051980558294
8.253307904,1.0013158274188956,-100.35807267046721
8.268430848,1.0011127805778364,-100.9438938313109
8.283553792,1.0008614884559186,-101.52732873280264
8.298676736,1.0005723027974305,-102.10787654740251
8.31379968,1.000257597664573,-102.68515714743758
8.328922624,0.9999309120654424,-103.25896481334878
8.344045568,0.9996060086086443,-103.82916379355375
8.359168,0.9992970580862675,-104.39587697976957
8.374290944,0.9990171831472644,-104.95941322098865
8.389413888,0.9987785823291293,-105.52013340232355
8.404536832,0.9985916687973609,-106.07859249540998
8.419659776,0.9984643738783352,-106.63549757402778
8.43478272,0.9984025972979095,-107.19153055986766
8.449905664,0.9984090035309414,-107.74753405994271
8.465028608,0.9984834914565789,-108.30431613726141
8.48015104,0.9986231722081315,-108.86267992932736
8.495273984,0.9988221181153212,-109.42334978825323
8.510396928,0.9990718997264952,-109.98699506466889
8.525519872,0.9993618750328928,-110.5542013956223
8.540642816,0.9996796835678408,-111.12530599011714
8.55576576,1.000011916009616,-111.70063354898751
8.570888704,1.0003442987451014,-112.2802223817294
8.586011136,1.000662484260283,-112.86400667891193
8.60113408,1.0009529925832015,-113.45172462181657
8.616257536,1.0012032443885022,-114.04303788332274
8.631379968,1.0014024231998184,-114.63729606474158
8.6465024,1.0015419790795366,-115.23397357353281
8.661625856,1.0016157309381266,-115.83220909769015
8.676748288,1.0016203516745263,-116.43126610131533
8.691871744,1.001555532510111,-117.03030471079335
8.706994176,1.001423925386241,-117.62854514771328
8.722117632,1.0012307424888565,-118.22520168755695
8.737240064,1.0009842292242705,-118.81957949284029
8.752362496,1.0006947395266468,-119.41110712566282
8.767485952,1.0003743982192719,-119.99935872837644
8.782608384,1.0000368936770951,-120.58402087019022
8.79773184,0.9996967477303993,-121.16497929826836
8.812854272,0.9993683598485318,-121.74227536747165
8.827977728,0.9990659345419965,-122.31609297427666
8.84310016,0.9988024681807657,-122.88687178101992
8.858222592,0.9985893716061549,-123.45507232044672
8.873346048,0.9984358947668254,-124.0214355803124
8.88846848,0.9983489737051869,-124.58660668161465
8.903591936,0.9983323164280252,-125.15148949046711
8.918714368,0.9983869639837565,-125.71688402627547
8.933837824,0.9985108128186098,-126.2836254855182
8.948960256,0.9986985663016559,-126.85257559895514
8.964082688,0.9989425068144372,-127.42438411616591
8.979206144,0.9992322417069147,-127.99966901863885
8.994328576,0.999555422296558,-128.5789470966859
9.009452032,0.9998983610682677,-129.16252831468927
9.024574464,1.0002464210309097,-129.75055571449082
9.03969792,1.0005846800969398,-130.34296493851485
9.054820352,1.000898729521908,-130.93959925815514
9.069942784,1.0011750593320985,-131.5401066018834
9.08506624,1.0014018544667793,-132.1439090003162
9.100188672,1.001569127551337,-132.7504060184786
9.115312128,1.0016696928936952,-133.3588762329474
9.13043456,1.0016991242972448,-133.96845354967212
9.145558016,1.0016559179332785,-134.5783154028195
9.160680448,1.0015416449879628,-135.1875781948737
9.175803904,1.0013610304160039,-135.7955081078365
9.190926336,1.0011215255912655,-136.40126231629603
9.206048768,1.0008332263369628,-137.0042390878784
9.221172224,1.0005081806857155,-137.60390947084835
9.236294656,1.0001602586250582,-138.19993736793842
9.251418112,0.9998041803117425,-138.7921155997856
9.266540544,0.9994551665746834,-139.38041187557957
9.281664,0.9991281643615856,-139.96501148673278
9.296786432,0.9988371329761299,-140.54624879356726
9.311908864,0.9985949107442691,-141.12459805446835
9.32703232,0.9984118269720296,-141.7007217842995
9.342154752,0.9982959647929425,-142.2753657996482
9.357278208,0.998252609979597,-142.84935159746797
9.37240064,0.9982838304468779,-143.42354242986494
9.387524096,0.9983883562300918,-143.99887140642824
9.402646528,0.998562083278077,-144.5761802929538
9.41776896,0.9987977679235314,-145.15622319121974
9.432892416,0.9990853135009897,-145.73969451432194
9.448014848,0.99941275974387,-146.3271546849956
9.463138304,0.9997661718746808,-146.91900455203776
9.478260736,1.0001304063054584,-147.51546118698224
9.493384192,1.0004901214788946,-148.1165570372491
9.508506624,1.0008297578364413,-148.72213962416052
9.523629056,1.0011348849051949,-149.33190567716494
9.538752512,1.0013924324829624,-149.9453799551563
9.553874944,1.0015910801564774,-150.56188101848537
9.5689984,1.0017224061651013,-151.1807201766027
9.584120832,1.0017805797745283,-151.80105539651777
9.599244288,1.0017628438166648,-152.4219956372047
9.61436672,1.0016697000699866,-153.04266757025394
9.629489152,1.0015048908821447,-153.66216103134443
9.644612608,1.001275129710245,-154.27968678480516
9.65973504,1.0009900983683477,-154.89452481427708
9.674858496,1.0006616413943372,-155.50609224376697
9.689980928,1.0003034760997613,-156.11392497847794
9.705104384,0.9999310507908935,-156.71775985389934
9.720226816,0.9995600039143541,-157.31752115276896
9.735349248,0.9992064022974031,-157.91329591702006
9.750472704,0.9988851506183128,-158.50537465786084
9.765595136,0.9986103026182865,-159.09421975685845
9.780718592,0.9983937097298287,-159.6804183786337
9.795841024,0.9982448624177874,-160.26475477722033
9.81096448,0.998170310496381,-160.84804138999073
9.826086912,0.9981736722513963,-161.43121763729624
9.841209344,0.9982548832755217,-162.01520221740537
9.8563328,0.9984109590300487,-162.60091094719553
9.871455232,0.9986351889137223,-163.18919447942048
9.886578688,0.9989183542666146,-163.78081943776434
9.90170112,0.9992485742018442,-164.37640439199572
9.916824576,0.9996119078396053,-164.97645622481872
9.931947008,0.9999927102082522,-165.58126099672418
9.94706944,1.0003750288728364,-166.1909450789963
9.962192896,1.0007424067991564,-166.8054411934815
9.977315328,1.0010792898066612,-167.42447082857163
9.992438784,1.0013711966511107,-168.04756823681905
10.007561216,1.0016054504633107,-168.67415791842825
10.022684672,1.001772021990313,-169.3034926140402
10.037807104,1.0018635254440633,-169.93474067375288
10.05293056,1.001875924519732,-170.56696865340305
10.068052992,1.00180820745004,-171.19927388448744
10.083175424,1.0016631994858767,-171.83067361041563
10.09829888,1.0014466119606025,-172.46033804954305
10.113421312,1.0011673339879887,-173.08742933016765
10.128544768,1.0008370481713724,-173.71129229227773
10.1436672,1.0004697063260397,-174.33137430752654
10.158790656,1.000080607279328,-174.94731062959923
10.173913088,0.999686483123419,-175.55896008566435
10.18903552,0.9993038648886635,-176.1663102014992
10.204158976,0.9989492654462946,-176.76961740862708
10.219281408,0.9986379526652953,-177.3692589664713
10.234404864,0.9983833465841288,-177.96585406696042
10.249527296,0.9981966042227031,-178.560112994472
10.264650752,0.9980859222199983,-179.15289837344207
10.279773184,0.9980564498914646,-179.7451508862768
10.294895616,0.9981096433863016,179.6621729235777
10.310019072,0.9982435318984784,179.06806438748166
10.325141504,0.9984527646629211,178.47159326212625
10.34026496,0.9987286920550594,177.8719467143455
10.355387392,0.9990596265868514,177.26833942202748
10.370510848,0.9994320154770832,176.66023611434457
10.38563328,0.9998295198489453,176.04722025161118
10.400755712,1.0002358125189816,175.42908028064392
10.415879168,1.0006333126139697,174.8058340448378
10.4310016,1.0010052656307136,174.1776678651227
10.446125056,1.001335651611914,173.54495133440918
10.461247488,1.0016102439610999,172.9082936860577
10.476370944,1.001817285151239,172.26840757758484
10.491493376,1.0019476574013049,171.626117874683
10.506615808,1.0019956584961909,170.98241263248022
10.521739264,1.0019586962985492,170.3382132421072
10.536861696,1.0018382050140717,169.6945721729094
10.551985152,1.001638715987872,169.0524204867332
10.567107584,1.0013686605090426,168.41266181722273
10.58223104,1.0010388544243913,167.77606523960395
10.597353472,1.000663243434147,167.1432626803063
10.612475904,1.0002575609889595,166.5147363477434
10.62759936,0.9998388492548961,165.8907200793773
10.642721792,0.9994250220410638,165.27132842735173
10.657845248,0.9990335787524679,164.65639090024226
10.67296768,0.9986814096993397,164.0455340660983
10.688091136,0.9983836545377707,163.43824650941013
10.703213568,0.9981533416515057,162.83379193258088
10.718336,0.9980005398787434,162.23133677297184
10.733459456,0.9979320408107776,161.62989304942957
10.748581888,0.9979512782805293,161.02844110163377
10.763705344,0.9980579134755133,160.4259408534749
10.778827776,0.998247602292751,159.8213803362234
10.793951232,0.9985124621159445,159.21379569272267
10.809073664,0.9988417894222815,158.6023832716153
10.824196096,0.999221544633503,157.98637804591786
10.839319552,0.9996359222838324,157.36534519728124
10.854441984,1.0000673236100535,156.7389435233841
10.86956544,1.0004976032365092,156.10708117611173
10.884687872,1.0009082745660132,155.4698620595835
10.899811328,1.0012817944852246,154.82762524111664
10.91493376,1.001602426947595,154.18090004575848
10.930057216,1.0018560495384665,153.53038536448696
10.945179648,1.0020317987243543,152.87692097294385
10.96030208,1.0021218516567278,152.22148218110365
10.975425536,1.0021219608473393,151.56511787030433
10.990547968,1.0020318206707834,150.90885408000446
11.005671424,1.0018546739075604,150.25377058554363
11.020793856,1.0015976805455813,149.60082546425716
11.035917312,1.001271397413253,148.95092522899597
11.051039744,1.0008891977090197,148.30482239798494
11.066162176,1.0004669353623075,147.6630889686841
11.081285632,1.0000226502174514,147.0261123437151
11.096408064,0.9995747913515383,146.3940756897798
11.11153152,0.9991425668085256,145.76690544163222
11.126653952,0.998744302256557,145.1443461335412
11.141777408,0.9983973637923778,144.52590746745258
11.15689984,0.9981165989026228,143.91087375145455
11.172022272,0.9979144357178477,143.29841343514212
11.187145728,0.9977998448571699,142.68756761541493
11.20226816,0.9977782055894068,142.07719688596484
11.217391616,0.9978509701448578,141.46624864619557
11.232514048,0.9980151767522915,140.85358416964036
11.247637504,0.9982645625902726,140.23815626973672
11.262759936,0.9985888693183073,139.61898191926306
11.277882368,0.9989744752571622,138.99527648390222
11.293005824,0.9994052935553359,138.36634601754906
11.308128256,0.9998633289303708,137.7317961772602
11.323251712,1.00032907050475,137.0914159800509
11.338374144,1.0007828310776152,136.44520724217676
11.3534976,1.00120528494398,135.79342956006593
11.368620032,1.0015784453390815,135.1365560950753
11.383742464,1.0018861432260282,134.47521218800432
11.39886592,1.0021151478142616,133.81028872989464
11.413988352,1.0022552587178732,133.1427722039227
11.429111808,1.0023002648288575,132.47371322119406
11.44423424,1.0022476458076062,131.8042388583721
11.459357696,1.0020990963846568,131.13550948350243
11.474480128,1.0018604002353129,130.46864570564605
11.48960256,1.0015411863568005,129.80460754873715
11.504726016,1.0011543978765476,129.1443215397977
11.519848448,1.0007162116764172,128.4884859328784
11.534971904,1.0002447587487409,127.83762452645684
11.550094336,0.9997599318811876,127.19204605443143
11.565217792,0.9992821443265156,126.55179748907203
11.580340224,0.9988317546405666,125.91671289285152
11.595462656,0.998428105201197,125.28633871814723
11.610586112,0.9980888186160718,124.66006852207141
11.625708544,0.9978284128851065,124.037047523438
11.640832,0.9976586556906555,123.41627670266207
11.655954432,0.9975872922508439,122.7966478172499
11.671077888,0.9976179494089098,122.17695012091312
11.68620032,0.9977497583419425,121.55596275189903
11.701322752,0.9979777604720738,120.93251094851526
11.716446208,0.9982927445910664,120.30552843102124
11.73156864,0.9986816404249005,119.67398192759508
11.746692096,0.9991285331817988,119.03714145249333
11.761814528,0.9996145306845862,118.39437759571872
11.776937984,1.0001191499713187,117.74536359834725
11.792060416,1.0006213134831385,117.08999643722164
11.807183872,1.001099491114548,116.42837565330046
11.822306304,1.0015334511428493,115.76097208592408
11.837428736,1.0019044044326912,115.08833663933444
11.852552192,1.0021964332905808,114.41134134232895
11.867674624,1.0023968428033594,113.7309529074054
11.88279808,1.0024963955739163,113.0483210552294
11.897920512,1.0024904315267942,112.36462065594316
11.913043968,1.0023786053786545,111.68112258212885
11.9281664,1.0021648068134255,110.99903556818563
11.943288832,1.0018575881652685,110.31953063323746
11.958412288,1.0014692822147215,109.64363032522887
11.97353472,1.001015650604402,108.97221959575162
11.988658176,1.0005155872517115,108.30599924304062
12.003780608,0.9999898599192292,107.64538764007212
