freq,mag,phase
6.0,1.0010441073885608,-29.02957369645724
6.012480512,1.0008385020289683,-29.521013289893393
6.024961024,1.0005937643509148,-30.01006263172527
6.037441536,1.0003212672051234,-30.496143372678862
6.049922048,1.0000334166071854,-30.97903124334635
6.06240256,0.9997437363503473,-31.45862019419043
6.074883072,0.999465726369941,-31.934948278563095
6.087363584,0.9992124511513626,-32.40823361891397
6.099844096,0.9989955179506614,-32.87888650701274
6.112324608,0.9988254970899922,-33.34740067914047
6.12480512,0.9987100526578272,-33.81438107712471
6.137285632,0.9986549276919544,-34.28060256296287
6.149766144,0.9986627037781555,-34.74683573060944
6.162246656,0.9987331022031813,-35.21375428578295
6.174727168,0.9988627435880785,-35.68222685160489
6.18720768,0.9990459238484596,-36.15293346677467
6.199688192,0.9992740293741086,-36.62653135241014
6.212168704,0.9995364349896065,-37.10340844675159
6.224649216,0.9998209279213707,-37.584015295157315
6.237129728,1.0001143183262304,-38.06846223941005
6.24961024,1.000403010174216,-38.55687828302069
6.26209024,1.0006734058972553,-39.049007459691886
6.274570752,1.0009130474633399,-39.544615415608185
6.287051264,1.0011106490541715,-40.04327147753158
6.299531776,1.001256910797896,-40.54431172827874
6.312012288,1.0013450139255906,-41.04713885346245
6.3244928,1.0013709672096112,-41.550962585903534
6.336973312,1.0013331656398088,-42.05501317541607
6.349453824,1.0012335723129084,-42.55854679874382
6.361934336,1.0010765098643775,-43.060770373663274
6.374414848,1.0008694104185087,-43.56106499343634
6.38689536,1.0006213953529532,-44.05883109590099
6.399375872,1.000344162729381,-44.55365065410488
6.411856384,1.0000508280269103,-45.04519137353338
6.424336896,0.9997545982149166,-45.53338763095191
6.436817408,0.9994696516757415,-46.01828784636171
6.44929792,0.9992089872501382,-46.5000294631615
6.461778432,0.9989849323036557,-46.97907128647055
6.474258944,0.9988080101740625,-47.45588215544018
6.486739456,0.9986865713293401,-47.93113323916273
6.499219968,0.9986262736304107,-48.405545933120436
6.51170048,0.9986301440133215,-48.87988137150367
6.524180992,0.9986980351846654,-49.354927426552116
6.536661504,0.998826851899839,-49.83152956292447
6.549142016,0.9990107323323819,-50.31034226960393
6.561622528,0.9992411053704202,-50.792017213484364
6.57410304,0.9995073715264302,-51.27714505513626
6.586583552,0.9997972278872456,-51.765947167924445
6.599064064,1.0000968921089906,-52.258774048992784
6.611544576,1.0003927675526534,-52.75559041584733
6.624025088,1.0006709747270583,-53.25624586005761
6.6365056,1.0009184341904835,-53.76048781823036
6.648986112,1.0011237216893687,-54.267873018289876
6.661466624,1.0012773695858725,-54.77776150594794
6.673947136,1.001371965344351,-55.28951712286078
6.686427648,1.0014029386851926,-55.80236767292144
6.69890816,1.0013691389890071,-56.31552168943518
6.711388672,1.0012717255236172,-56.82817898885323
6.723869184,1.0011152386744064,-57.33959155346455
6.736349696,1.0009066712801793,-57.84902690424293
6.748830208,1.000655813800384,-58.35596485266836
6.761310208,1.000374204150569,-58.85985610892456
6.77379072,1.0000747682379554,-59.360506510173416
6.786271232,0.9997713875315105,-59.85770242073601
6.798751744,0.9994783065028583,-60.351496015134465
6.811232256,0.999209253470018,-60.84209970378562
6.823712768,0.9989765002304064,-61.329850636322554
6.83619328,0.9987912183539018,-61.81531777386293
6.848673792,0.9986620482035212,-62.29913502394628
6.861154304,0.9985953132704425,-62.7819971178412
6.873634816,0.9985936126216545,-63.264724799351036
6.886115328,0.9986578637085439,-63.74814019992882
6.89859584,0.998784702022444,-64.23305011067815
6.911076352,0.9989685793216897,-64.720184965808
6.923556864,0.9992007941129663,-65.2102122230566
6.936037376,0.9994707808355576,-65.70366659140367
6.948517888,0.9997659738608248,-66.20094327262552
6.9609984,1.000072586153422,-66.70225509029122
6.973478912,1.0003764198312552,-67.20770038220506
6.985959424,1.000663567320693,-67.71710853452831
6.998439936,1.000920280290152,-68.2301471201732
7.010920448,1.0011349067116824,-68.74650562024266
7.02340096,1.0012973778519012,-69.26546684976968
7.035881472,1.001399840940524,-69.78637417928681
7.048361984,1.0014377838625228,-70.3085314166701
7.060842496,1.001409166641699,-70.83104865819027
7.073323008,1.0013152680555217,-71.35313319235658
7.08580352,1.001160225792169,-71.8740085252185
7.098284032,1.0009511529306634,-72.39293268436862
7.110764544,1.0006977389824216,-72.90932827411655
7.123245056,1.0004115720555076,-73.42272922699792
7.135725568,1.000105748658848,-73.93274981582609
7.14820608,0.9997946647792062,-74.43922872298421
7.160686592,0.9994926280272945,-74.94224612658644
7.173167104,0.9992137454124985,-75.4419346289417
7.185647616,0.9989709164160898,-75.93870835237301
7.198128128,0.9987755390121311,-76.43302476857386
7.21060864,0.9986371300376334,-76.92555275004122
7.223089152,0.9985617310701819,-77.41711129669608
7.235569664,0.9985533359403294,-77.90837612976911
7.248050176,0.9986124309960287,-78.40024687068266
7.260530176,0.9987361551984493,-78.89357491361774
7.273010688,0.9989190222177133,-79.38914517625787
7.2854912,0.999152674380643,-79.88755241334827
7.297971712,0.999426122191024,-80.38944841848338
7.310452224,0.9997268286702601,-80.89522043101603
7.322932736,1.0000408951973858,-81.4051222919054
7.335413248,1.000353760821771,-81.91919588321078
7.34789376,1.0006507712954023,-82.43741998316473
7.360374272,1.000918275242712,-82.95942512380564
7.372854784,1.0011438051434176,-83.48479599261715
7.385335296,1.001316833022148,-84.01295370482731
7.397815808,1.0014291801661632,-84.54321066068536
7.41029632,1.00147558957519,-85.0748313063543
7.422776832,1.00145390260426,-85.6068534684552
7.435257344,1.0013648545200207,-86.13854507367849
7.447737856,1.0012124386434758,-86.6690999304252
7.460218368,1.0010036893680168,-87.19774381487571
7.47269888,1.0007480627089609,-87.7238056239829
7.485179392,1.0004572263261806,-88.2468328700176
7.497659904,1.0001449475512556,-88.76643137172911
7.510140416,0.9998252133992647,-89.28241221485271
7.522620928,0.9995131217542929,-89.79480552456288
7.53510144,0.9992230300336852,-90.30376736489995
7.547581952,0.9989684348554908,-90.80961859896287
7.560062464,0.9987615432519287,-91.31292630359242
7.572542976,0.9986117275732245,-91.81427171884016
7.585023488,0.9985262771297624,-92.31445475280178
7.597504,0.9985091780994845,-92.814339252634
7.609984512,0.9985614105600475,-93.3146893996256
7.622465024,0.9986807505902172,-93.81642882360887
7.634945536,0.9988615825340944,-94.3203196966076
7.647426048,0.9990957977046951,-94.82709457906631
7.65990656,0.9993725261160336,-95.33734757465669
7.672387072,0.999678901000252,-95.85152635085531
7.684867584,1.0000009018093297,-96.36990724811453
7.697348096,1.000323675553897,-96.89261904179178
7.709828608,1.0006320549687164,-97.41953304534334
7.72230912,1.0009117075845624,-97.95040669038706
7.734789632,1.0011499276070892,-98.4847880885146
7.747270144,1.001335371951218,-99.02213719967962
7.759750144,1.0014595125324486,-99.56170950720028
7.772230656,1.0015163762571277,-100.10271851149216
7.784711168,1.0015032536544641,-100.64435525058886
7.79719168,1.0014206414586004,-101.18569950357738
7.809672192,1.001272136507866,-101.72597548724566
7.822152704,1.0010646328111374,-102.26435354927153
7.834633216,1.000807399985086,-102.80019481258743
7.847113728,1.0005122983607084,-103.33292236156252
7.85959424,1.000192975739237,-103.86215450366781
7.872074752,0.9998638750279331,-104.38771456035143
7.884555264,0.9995407028355535,-104.90950545919442
7.897035776,0.9992379514746837,-105.42772113169133
7.909516288,0.998970075305751,-105.94266457167446
7.9219968,0.9987495005270525,-106.45489897893843
7.934477312,0.9985864156818232,-106.9650339993307
7.946957824,0.9984887369620502,-107.4738319014162
7.959438336,0.9984610872780335,-107.982100104318
7.971918848,0.9985048749798505,-108.4908035422603
7.98439936,0.9986180397573419,-109.00072588142058
7.996879872,0.9987958156085132,-109.51277782001827
8.009360384,0.9990297849859302,-110.02764937619291
8.021840896,0.9993093067485483,-110.54601564948149
8.034321408,0.9996214956585207,-111.06838962100224
8.04680192,0.9999519543751795,-111.59498469250497
8.059282432,1.0002854330683075,-112.12602894951515
8.071762944,1.0006063048158789,-112.66141669633518
8.084243456,1.0008999129624154,-113.20092895773526
8.096723968,1.0011526424017227,-113.74414507592286
8.10920448,1.0013525051489696,-114.29046359680191
8.121684992,1.0014904370119047,-114.83917366127011
8.134165504,1.0015598887395916,-115.3894979852379
8.146646016,1.001557336082468,-115.94054419371675
8.159126528,1.0014829550662703,-116.49144629823769
8.17160704,1.00133996769517,-117.04132285726682
8.184087552,1.0011346194972024,-117.58936177560068
8.196568064,1.0008764797660346,-118.13485769938467
8.209048576,1.0005771768436258,-118.67723698807711
8.221529088,1.0002506120589858,-119.21599789511673
8.2340096,0.9999116980304622,-119.7509900092186
8.246490112,0.9995761853183124,-120.28207394075419
8.258970112,0.999259513400446,-120.80940043753915
8.271450624,0.9989763713950002,-121.33330798711322
8.283931136,0.9987400912240136,-121.85424831990892
8.296411648,0.9985617363929649,-122.37291646706952
8.30889216,0.9984495980754241,-122.89001854415997
8.321372672,0.9984091928738332,-123.40646427929066
8.333853184,0.9984424663497037,-123.92311460339712
8.346333696,0.9985481005188893,-124.44091031376603
8.358814208,0.9987212018990236,-124.96071217634469
8.37129472,0.9989540948645128,-125.4833260829382
8.383775232,0.9992359404331161,-126.00940246694071
8.396255744,0.9995539003089742,-126.53945889949759
8.408736256,0.9998933034412582,-127.07389592907263
8.421216768,1.0002383225240155,-127.61284823209965
8.43369728,1.0005732068854134,-128.1563232925529
8.446177792,1.0008823389613755,-128.7040675056685
8.458658304,1.0011515883264643,-129.2556512993532
8.471138816,1.0013681970747133,-129.81056517975455
8.483619328,1.0015221677157637,-130.36809940252732
8.49609984,1.0016063493696634,-130.92738548511537
8.508580352,1.0016165697176018,-131.4875550251097
8.521060864,1.0015522864525908,-132.0476957240529
8.533541376,1.0014161567269722,-132.60690638005408
8.546021888,1.0012144406982628,-133.1643353776016
8.5585024,1.0009560998443707,-133.71922595516864
8.570982912,1.0006530007941286,-134.27097289004593
8.583463424,1.0003190082839422,-134.8190388653149
8.595943424,0.9999695379616652,-135.36318317732125
8.608423936,0.9996205058521118,-135.90327549760661
8.620904448,0.9992881564336168,-136.43942602921442
8.63338496,0.9989879667610437,-136.9719155349586
8.645865472,0.9987338780872426,-137.5012102637279
8.658345984,0.9985377948542904,-138.02798338213182
8.670826496,0.9984089329278604,-138.55298339425778
8.683307008,0.9983534437110657,-139.07706040990914
8.69578752,0.9983740951667002,-139.60121751915366
8.708268032,0.9984701600759738,-140.12633196121064
8.720748544,0.9986372292360691,-140.6533327402179
8.733229056,0.9988678890090998,-141.18305088227353
8.745709568,0.9991514838570379,-141.71619006587065
8.75819008,0.999475099775003,-142.2533841755123
8.770670592,0.9998237410062536,-142.79501718868102
8.783151104,1.0001814828711328,-143.34127991111956
8.795631616,1.0005316043185273,-143.89219079977136
8.808112128,1.0008581558518235,-144.44756104073545
8.82059264,1.0011458788699632,-145.00700226705473
8.833073152,1.0013816304770662,-145.56994741604117
8.845553664,1.0015540396602063,-146.13569606553392
8.858034176,1.001655407649658,-146.7034366409069
8.870514688,1.0016806251258985,-147.2722076935041
8.8829952,1.0016285013080415,-147.84113956035603
8.895475712,1.0015011777346539,-148.40924232093434
8.907956224,1.0013043247897455,-148.97564389014568
8.920436736,1.0010467045734395,-149.53949684272936
8.932917248,1.0007401414755426,-150.10018683322627
8.94539776,1.0003986158255773,-150.65710319430104
8.957878272,1.0000378298906551,-151.2099708059856
8.970358784,0.9996741656811299,-151.75860656825031
8.982839296,0.9993245946122026,-152.30307072245373
8.995319808,0.9990053292616156,-152.84363160478028
9.00780032,0.9987311159204462,-153.38074112609584
9.020280832,0.9985147966279152,-153.9150475692218
9.032761344,0.9983666148337617,-154.4473303989171
9.045241856,0.998293609242367,-154.9784261555882
9.057722368,0.998299429045584,-155.50934950323887
9.07020288,0.9983838224690438,-156.0410421428304
9.082683392,0.9985432218041447,-156.57447940283882
9.095163904,0.9987704654979535,-157.11054549831468
9.107644416,0.9990551903219023,-157.64999723539728
9.120124928,0.9993842059107959,-158.19350643573972
9.13260544,0.9997426710460051,-158.74150392800934
9.145085952,1.0001138143702017,-159.2942259748409
9.157566464,1.000480887215542,-159.85180576412142
9.170046976,1.000826572529807,-160.41400750307454
9.182527488,1.001135203523496,-160.9805073845021
9.195008,1.0013922889634765,-161.55074936234874
9.207488512,1.001585878654746,-162.12403791659162
9.219969024,1.001706993405988,-162.6995050648962
9.232449536,1.0017498022601783,-163.27628324589546
9.244930048,1.0017121316042767,-163.85334205033647
9.25741056,1.0015954772708886,-164.42970878303913
9.269891072,1.0014049447419116,-165.0044526272603
9.282371584,1.0011491643112176,-165.5767279785578
9.294852096,1.000839590286702,-166.1457316914783
9.307332608,1.000490390938851,-166.710911894511
9.31981312,1.0001174986020198,-167.27190440814886
9.332293632,0.9997381368579497,-167.82845876970333
9.344774144,0.9993695676397214,-168.3806135008253
9.357254656,0.9990290116000187,-168.92858345625785
9.369735168,0.9987322840039127,-169.47282035510855
9.38221568,0.9984931002322803,-170.01391739216797
9.394696192,0.9983230321991317,-170.55265315956876
9.407176704,0.9982297406751798,-171.0899521303935
9.419657216,0.9982180398623062,-171.6268109500187
9.432137728,0.998288785154835,-172.16419421206461
9.44461824,0.998438653458032,-172.70313429932574
9.457098752,0.9986611655138924,-173.24459684632708
9.469579264,0.9989461703108246,-173.7893874797727
9.482059776,0.9992805724173911,-174.33822203512378
9.494540288,0.9996491566680524,-174.8916201591907
9.507019776,1.0000349659039978,-175.44986461323947
9.519500288,1.0004202902772947,-176.01310374771953
9.5319808,1.0007873661407718,-176.58119233770017
9.544461312,1.0011192084211675,-177.15386521362583
9.556941824,1.0014003588708138,-177.73050628072198
9.569422336,1.0016178914240383,-178.31043964311263
9.581902848,1.0017615335402534,-178.89285873615177
9.59438336,1.0018245474310234,-179.47677490102913
9.606863872,1.001803850406105,179.93880048402966
9.619344384,1.001699993404342,179.35491363795774
9.631824896,1.001517512804003,178.77254675805096
9.644305408,1.0012643803998456,178.19265580197438
9.65678592,1.0009524047114386,177.616005071948
9.669266432,1.0005954298994106,177.04326362253929
9.681746944,1.000209795302803,176.4749036065897
9.694227456,0.9998132067788844,175.9111650766821
9.706707968,0.999423834194535,175.35209296017754
9.71918848,0.9990597316559757,174.7975299733871
9.731668992,0.9987377448202581,174.24702571493003
9.744149504,0.9984729034403629,173.70000189149528
9.756630016,0.9982777423563038,173.1556672679011
9.769110528,0.9981614083609845,172.61311425467764
9.78159104,0.9981296671937661,172.07134825688107
9.794071552,0.9981840256914098,171.5292744947229
9.806552064,0.9983225235830823,170.98589027452743
9.819032576,0.9985389027355551,170.44012232941338
9.831513088,0.9988233515522359,169.89108327848416
9.8439936,0.9991629535884831,169.33804487527902
9.856474112,0.9995422497688361,168.78036828404382
9.868954624,0.9999437423969312,168.21770417606427
9.881435136,1.0003490470606484,167.64985674513622
9.893915648,1.0007396803843696,167.0769283433698
9.90639616,1.0010972900753328,166.4991962491657
9.918876672,1.0014055375860842,165.91716074696896
9.931357184,1.0016500219154638,165.33153124197867
9.943837696,1.0018194170951293,164.74315573594637
9.956318208,1.0019056439130358,164.15299060853448
9.96879872,1.001904396055418,163.56209483871766
9.981279232,1.0018154986938836,162.97153255032762
9.993759744,1.0016428035863976,162.38239274965895
10.006240256,1.0013937970956595,161.79561678383035
10.018720768,1.0010796538185411,161.21213155339169
10.03120128,1.0007147362180688,160.63267014017816
10.043681792,1.0003154783276775,160.05769823527427
10.056162304,0.9999001377859617,159.48762429237254
10.068642816,0.9994878020045406,158.92247868333865
10.081123328,0.9990975871083874,158.36217369198812
10.09360384,0.9987474191746645,157.8063104825897
10.106084352,0.9984537527408966,157.254312992268
10.118564864,0.9982304156289307,156.70541632135098
10.131045376,0.9980877824719291,156.15866902237818
10.143525888,0.9980329276029507,155.6130318736346
10.1560064,0.9980686354504532,155.06739487416354
10.168486912,0.9981935947296515,154.52067705941025
10.180967424,0.9984023867018536,153.9717754190805
10.193447936,0.9986854557424636,153.41969724305375
10.205928448,0.9990301979796506,152.86361142056597
10.21840896,0.9994207589147218,152.30284644165698
10.230889472,0.9998392752348692,151.73694943769726
10.243369984,1.0002666138283556,151.16568075755498
10.255850496,1.0006831860830763,150.5890586434304
10.268331008,1.0010695869395465,150.0073161826895
10.28081152,1.0014080561832357,149.42097277628997
10.293292032,1.0016829411752626,148.83066839816257
10.305772544,1.0018813660226895,148.23727646029488
10.318253056,1.0019938517284508,147.6417902470344
10.330733568,1.0020150188046923,147.0453043892405
10.34321408,1.0019436553497156,146.44895800458602
10.355694592,1.0017823651991127,145.85385938082382
10.368175104,1.0015385609841019,145.26107980371856
10.380655616,1.0012229054258734,144.67156313169713
10.393136128,1.0008495881381831,144.086142930595
10.40561664,1.0004355975534236,143.50542436960458
10.418097152,0.9999996971630093,142.92980248998785
10.430577664,0.9995621715585244,142.35946782286217
10.443058176,0.9991428647718765,141.7943076888026
10.455538688,0.9987612456429887,141.23401187133445
10.4680192,0.9984352389546881,140.67799766160482
10.480499712,0.9981800690463497,140.12553768857225
10.492980224,0.9980076591270273,139.57562129971674
10.505459712,0.9979264938133512,139.02722046410992
10.517940224,0.997940644689116,138.47917923704495
10.530420736,0.9980499326702652,137.93030567606624
10.542901248,0.9982494337031745,137.37944377987716
10.55538176,0.9985305776209281,136.82550659880616
10.567862272,0.9988803452608526,136.26759479042198
10.580342784,0.999283044155337,135.70493824489282
10.592823296,0.9997202449692598,135.13697175493633
10.605303808,1.0001720233012692,134.56341288997038
10.61778432,1.0006174292596175,133.9842247687397
10.630264832,1.0010359698250906,133.3995509598325
10.642745344,1.0014085690290921,132.8098961942777
10.655225856,1.0017174993960216,132.21589318742693
10.667706368,1.0019487137747682,131.61844024965836
10.68018688,1.0020910932713403,131.01851487342213
10.692667392,1.002137874314206,130.4172705666054
10.705147904,1.0020863271637122,129.81589856947878
10.717628416,1.0019387656975751,129.2156194237764
10.730108928,1.0017010671519955,128.61755308512915
10.74258944,1.0013841516927653,128.02272212033054
10.755069952,1.0010020758437403,127.43209216245707
10.767550464,1.00057189586536,126.84632716485432
10.780030976,1.0001135878033385,126.26590747728257
10.792511488,0.9996476327643163,125.69112322531828
10.804992,0.9991958270295075,125.12192883681868
10.817472512,0.9987789059495144,124.55802244344622
10.829953024,0.9984163088465514,123.99889257208031
10.842433536,0.9981251671762388,123.4437766376272
10.854914048,0.9979191248425339,122.89170529547106
10.86739456,0.997808090018078,122.34156831157647
10.879875072,0.9977975833263955,121.79215561319387
10.892355584,0.9978887399659586,121.24221621991556
10.904836096,0.9980775886601805,120.690500041148
10.917316608,0.9983558828578075,120.13583892767504
10.92979712,0.9987110573625699,119.5772124758804
10.942277632,0.9991271513230151,119.01377226565019
10.954758144,0.9995850018868392,118.4448378626693
10.967238656,1.0000639935154279,117.87002544339886
