freq,mag,phase
6.0,0.9998495361476796,-102.35613879497572
6.004584448,0.999885987481156,-102.60395385097128
6.009168896,0.999928389556881,-102.85236656877022
6.013753344,0.9999750316134146,-103.10143414401188
6.018338304,1.0000230611572734,-103.3512312855634
6.022922752,1.000069655418635,-103.60170639653099
6.0275072,1.0001119152520936,-103.85286793967353
6.032091648,1.0001474520581233,-104.10464701452625
6.036676096,1.000174139890677,-104.3568893660342
6.041260544,1.0001903787674706,-104.60946089422058
6.045845504,1.000195119498592,-104.86231733425961
6.050429952,1.0001882075104893,-105.11513709107705
6.0550144,1.0001698017333238,-105.36782684567947
6.059598848,1.000141115724026,-105.62024913310007
6.064183296,1.0001039170867898,-105.87224838186322
6.068767744,1.0000602634792366,-106.12373442231332
6.073352192,1.000012698392127,-106.3746062681341
6.077937152,0.9999641906076426,-106.62487187080924
6.0825216,0.9999174063622107,-106.87450216388528
6.087106048,0.9998753672289702,-107.12356791960971
6.091690496,0.999840318005894,-107.37212789748553
6.096274944,0.9998146245435718,-107.62027971904926
6.100859392,0.9997996101132248,-107.86821739964975
6.105444352,0.9997963154968371,-108.11606275542471
6.1100288,0.999804857174819,-108.36396564777044
6.114613248,0.999824787749752,-108.61212181458465
6.119197696,0.9998549440418731,-108.86070289565349
6.123782144,0.9998936584892361,-109.1097373035098
6.128366592,0.9999384775935674,-109.3594756774541
6.13295104,0.9999869047105477,-109.60988713205064
6.137536,1.000035948154552,-109.86101696266437
6.142120448,1.0000828885293986,-110.11286448331367
6.146704896,1.0001246314856334,-110.36540338907737
6.151289344,1.0001590069163715,-110.6184810647496
6.155873792,1.0001838107380305,-110.87201635666221
6.16045824,1.0001974939753047,-111.12595563628861
6.1650432,1.0001993336454205,-111.3799676706614
6.169627648,1.000189330620292,-111.6339805518516
6.174212096,1.0001677254660963,-111.88785007633322
6.178796544,1.0001359446602807,-112.14136066333542
6.183380992,1.0000958883029256,-112.39441539759696
6.18796544,1.0000498881487936,-112.64690799663518
6.192549888,1.0000006046353807,-112.89878768921268
6.197134848,0.9999511047347297,-113.14997942994725
6.201719296,0.9999041754445567,-113.40056022554728
6.206303744,0.9998626012703542,-113.65055826678001
6.210888192,0.9998290110238564,-113.90005352001218
6.21547264,0.9998052040492775,-114.14921448981828
6.220057088,0.9997927684851439,-114.39814155609851
6.224642048,0.9997925046870871,-114.64701140441733
6.229226496,0.999804240247042,-114.89602721888792
6.233810944,0.9998273627441406,-115.14529076310068
6.238395392,0.9998607945856163,-115.3950275701983
6.24297984,0.9999021478046858,-115.64529948909309
6.247564288,0.9999493054471509,-115.89624731512406
6.252149248,0.9999993793720626,-116.1479265771394
6.256733696,1.0000493964380244,-116.40032243739137
6.261318144,1.0000963268881509,-116.65344758334118
6.265902592,1.000137563985445,-116.90724441659312
6.27048704,1.000170515506763,-117.16161685178187
6.275071488,1.0001931799232513,-117.41639925934476
6.279655936,1.0002042827893958,-117.67144715823675
6.284240896,1.000203118724475,-117.92665479700119
6.288825344,1.0001897282132348,-118.18176928324925
6.293409792,1.0001648975977748,-118.43665379583621
6.29799424,1.0001300491262164,-118.69117076185556
6.302578688,1.0000872997861967,-118.94515182742671
6.307163136,1.000039070409566,-119.19858904125684
6.311748096,0.9999882380908934,-119.45137271336168
6.316332544,0.999937940541955,-119.70343358224103
6.320916992,0.9998908912914216,-119.95487799264055
6.32550144,0.9998501769655797,-120.20570723878943
6.330085888,0.9998179987591977,-120.45612961500755
6.334670336,0.9997964285169326,-120.70614521748477
6.339254784,0.9997867305996504,-120.95602678461009
6.343839744,0.9997894106247875,-121.20584737249459
6.348424192,0.9998044392750544,-121.4558432370944
6.35300864,0.9998309980062094,-121.70614464490947
6.357593088,0.9998673849131517,-121.95700426782739
6.362177536,0.9999115738257739,-122.20839631310594
6.366761984,0.9999608271338578,-122.46050084667374
6.371346944,1.0000123248933,-122.71335561918373
6.375931392,1.0000631056210696,-122.96695003391129
6.38051584,1.000110024624996,-123.22126703227
6.385100288,1.000150398813191,-123.47623424164188
6.389684736,1.0001816211550785,-123.73175373492181
6.394269184,1.0002021545545752,-123.98765901992422
6.398853632,1.0002103992720757,-124.24382696586667
6.403438592,1.000206112629799,-124.50003558378435
6.40802304,1.0001893635752463,-124.75617264213656
6.412607488,1.0001613014691892,-125.01198511197909
6.417191936,1.0001233874683535,-125.26741613687467
6.421776384,1.0000779162159152,-125.5222759175955
6.426360832,1.0000276454190142,-125.7765189793802
6.430945792,0.9999753965030947,-126.03006832253813
6.43553024,0.999924383631547,-126.28291117708692
6.440114688,0.9998775100411549,-126.53511672486312
6.444699136,0.9998376646075683,-126.7867484220611
6.449283584,0.9998072694072794,-127.0379092079174
6.453868032,0.9997880333623392,-127.2887449571308
6.45845248,0.9997811615218198,-127.53945414509974
6.46303744,0.9997871015695575,-127.79016234088301
6.467621888,0.9998054199981872,-128.0410879680222
6.472206336,0.9998352833510301,-128.2923883313335
6.476790784,0.9998747451452938,-128.54418727791827
6.481375232,0.9999215265040691,-128.79662772617877
6.48595968,0.9999728941926349,-129.04980335071986
6.49054464,1.000025800859114,-129.30376497559638
6.495129088,1.000077125879313,-129.55844238793165
6.499713536,1.0001237351972398,-129.81387053502556
6.504297984,1.0001629822387947,-130.06993976366545
6.508882432,1.00019251077963,-130.3265229892903
6.51346688,1.0002105189553971,-130.58346198237592
6.518051328,1.0002159313173133,-130.84062065502414
6.522636288,1.0002083534827635,-131.0977870733545
6.527220736,1.0001882947161849,-131.35478716169226
6.531805184,1.0001568709870716,-131.61145823182264
6.536389632,1.0001159197564249,-131.8676654244885
6.54097408,1.0000678724561116,-132.12326649902235
6.545558528,1.000015579309938,-132.37822178901405
6.550143488,0.9999620770297183,-132.63244558955384
6.554727936,0.9999105408811733,-132.88598469149335
6.559312384,0.9998640138058135,-133.13884365323744
6.563896832,0.9998253921639099,-133.39115412742223
6.56848128,0.999796790481383,-133.64299536496767
6.573065728,0.9997801852883392,-133.8945529864484
6.577650176,0.9997762610254827,-134.1460142743252
6.582235136,0.9997855200648416,-134.39749801779655
6.586819584,0.9998072627230543,-134.64928387451016
6.591404032,0.9998404190194173,-134.9014419887535
6.59598848,0.9998828931928844,-135.15415242489155
6.600572928,0.9999321798976663,-135.40757579723277
6.605157376,0.9999854969967383,-135.66171366673726
6.609742336,1.0000395864934224,-135.91667235496698
6.614326784,1.0000911948118232,-136.17236113502565
6.618911232,1.0001374996905963,-136.4287790273777
6.62349568,1.0001754195146533,-136.68583428840836
6.628080128,1.0002029857385828,-136.9433734487179
6.632664576,1.000218339359287,-137.2012303525129
6.637249536,1.0002207317669654,-137.45927424759608
6.641833984,1.0002097645894032,-137.71728955247463
6.646418432,1.0001862100054983,-137.97507918921502
6.65100288,1.0001515574437592,-138.23246691391677
6.655587328,1.0001076285598691,-138.48936302653095
6.660171776,1.0000570013774095,-138.7456245215189
6.664756224,1.0000028398288148,-139.00117331075276
6.669341184,0.9999482423825858,-139.2559620373719
6.673925632,0.9998963807007749,-139.51006566119804
6.67851008,0.999850481076891,-139.76349025943367
6.683094528,0.9998132240229166,-140.0163504390383
6.687678976,0.9997867169489522,-140.26882676423273
6.692263424,0.999772747535409,-140.5210002325196
6.696848384,0.9997719663772066,-140.7731072720337
6.701432832,0.999784583393477,-141.02531144089102
6.70601728,0.9998098724700688,-141.2778138724463
6.710601728,0.9998463210394859,-141.5307733525923
6.715186176,0.9998917175025194,-141.78431636916903
6.719770624,0.9999435399977714,-142.03858629502406
6.724355072,0.9999986588165773,-142.29362674518563
6.728940032,1.0000536971055476,-142.54948169918447
6.73352448,1.000105602308393,-142.80607925131298
6.738108928,1.0001511911974212,-143.06341016096962
6.742693376,1.0001877588132615,-143.32134010326405
6.747277824,1.000213072353989,-143.57975521339392
6.751862272,1.0002256950629018,-143.8384266882124
6.756447232,1.000224825829562,-144.0972283917157
6.76103168,1.0002104637676787,-144.35592679976668
6.765616128,1.0001835196301792,-144.614362078092
6.770200576,1.0001454656650963,-144.8724065043173
6.774785024,1.000098481758515,-145.12986913041857
6.779369472,1.0000455858271255,-145.3866503200402
6.78395392,0.9999896780580054,-145.64266042716858
6.78853888,0.999934090583031,-145.89795657664794
6.793123328,0.9998822591751306,-146.15251758125962
6.797707776,0.9998370864737469,-146.40640114539548
6.802292224,0.9998013348269846,-146.65972549886774
6.806876672,0.9997770923680015,-146.91269362667902
6.81146112,0.999765963142333,-147.165372295512
6.81604608,0.9997684587894033,-147.4180533887384
6.820630528,0.9997845851671233,-147.6708651006575
6.825214976,0.9998133442975091,-147.92403111091923
6.829799424,0.9998531465435011,-148.17768821111056
6.834383872,0.9999014345079253,-148.43197124956538
6.83896832,0.9999555852837088,-148.68698190370975
6.843552768,1.0000122927748436,-148.9428397080558
6.848137728,1.0000683000051964,-149.1994731824537
6.852722176,1.0001201660385632,-149.45690397855978
6.857306624,1.0001648185344494,-149.71502713936803
6.861891072,1.0001996897243646,-149.97376277740804
6.86647552,1.0002226675427237,-150.23286864344232
6.871059968,1.000232379525577,-150.49226470251935
6.875644928,1.0002281584012929,-150.75172764031706
6.880229376,1.0002102774429136,-151.01103581691848
6.884813824,1.0001797294878927,-151.27004083968896
6.889398272,1.000138389996604,-151.52857362290106
6.89398272,1.000088630101891,-151.78645479697474
6.898567168,1.000033395736798,-152.0436453824556
6.903151616,0.9999758490793521,-152.30005616096258
6.907736576,0.999919581442766,-152.55567744646848
6.912321024,0.999867747129152,-152.81060397097494
6.916905472,0.9998235546984117,-153.06482637338434
6.92148992,0.9997895903748171,-153.31852437742268
6.926074368,0.9997678959640646,-153.5718522148318
6.930658816,0.999759728125796,-153.8250127600948
6.935243776,0.9997656431769627,-154.07811794287176
6.939828224,0.9997852945259065,-154.33145411967695
6.944412672,0.999817654330581,-154.58516215880528
6.94899712,0.9998606169261157,-154.83940844631476
6.953581568,0.9999118506161243,-155.094363477543
6.958166016,0.9999682652400369,-155.350064134558
6.962750464,1.0000264728273673,-155.60656493767777
6.967335424,1.0000831156038248,-155.8639223866543
6.971919872,1.0001348207524683,-156.12207431193306
6.97650432,1.000178363085966,-156.38088063442643
6.981088768,1.0002113974413605,-156.64026297862782
6.985673216,1.0002318275690931,-156.90003902850293
6.990257664,1.000238406016207,-157.15999325326018
6.994842624,1.0002307742298198,-157.41997502364688
6.999427072,1.0002093059396333,-157.67978791661608
7.00401152,1.0001751644073706,-157.9392144049945
7.008595968,1.0001305488640773,-158.19810702431997
7.013180416,1.0000780120890866,-158.45635990104196
7.017764864,1.0000204861000048,-158.71382234040885
7.022349824,0.9999616467572857,-158.97050795963105
7.026934272,0.9999047297054073,-159.2263876235039
7.03151872,0.9998532167245986,-159.48148714494593
7.036103168,0.9998101868010723,-159.73599114396225
7.040687616,0.9997781870401033,-159.98995424610715
7.045272064,0.9997591100719739,-160.24357613542315
7.049856512,0.9997541609266937,-160.49704294205466
7.054441472,0.9997635805175636,-160.75052088873156
7.05902592,0.9997869033879986,-161.00426029824894
7.063610368,0.999822732877154,-161.25842735707909
7.068194816,0.9998690840017779,-161.51321337219036
7.072779264,0.9999231001505402,-161.7686681896263
7.077363712,0.999981598184247,-162.02494952028638
7.081948672,1.0000412283108018,-162.28204408806138
7.08653312,1.0000983098789038,-162.54001321359678
7.091117568,1.0001495116984431,-162.7987456524659
7.095702016,1.0001918840622377,-163.0581374632888
7.100286464,1.0002227948264635,-163.31805651230064
7.104870912,1.0002405715631626,-163.5783477551289
7.10945536,1.0002438145952461,-163.83879405676882
7.11404032,1.0002325846464286,-164.0991959299225
7.118624768,1.0002074256278526,-164.35935555439332
7.123209216,1.0001698315412408,-164.61912060960853
7.127793664,1.000121944291272,-164.87828075334906
7.132378112,1.0000666111053955,-165.13670926417902
7.13696256,1.0000070144705415,-165.39435607864286
7.14154752,0.999946953113939,-165.65116378539122
7.146131968,0.9998896379600609,-165.90718689515245
7.150716416,0.9998385873537147,-166.1624375523551
7.155300864,0.9997969302776959,-166.41703211929666
7.159885312,0.9997670688349821,-166.67117954927073
7.16446976,0.9997509185697482,-166.92496587898918
7.169054208,0.9997493115301546,-167.17864723646548
7.173639168,0.9997623721818284,-167.4324145559914
7.178223616,0.9997893419281295,-167.68646604097654
7.182808064,0.9998288548782214,-167.9410168742817
7.187392512,0.9998783607529862,-168.19615954711696
7.19197696,0.9999350638348748,-168.4520835316634
7.196561408,0.9999955647264755,-168.70884034414843
7.201146368,1.0000563058214633,-168.96644742439895
7.205730816,1.000113682815107,-169.2248871524686
7.210315264,1.0001643095973753,-169.48411426769275
7.214899712,1.0002051762952076,-169.74400186081135
7.21948416,1.0002338327185878,-170.0043491679105
7.224068608,1.0002485944119186,-170.26504423195036
7.228653056,1.0002484995441365,-170.52584056552755
7.233238016,1.0002335752258322,-170.78654160344743
7.237822464,1.000204655427698,-171.04696294607967
7.242406912,1.0001634238027932,-171.30689444148015
7.24699136,1.0001123513176335,-171.5661658861276
7.251575808,1.0000543555807533,-171.82471633201177
7.256160256,0.9999928731657687,-172.08238340846387
7.260745216,0.9999316461012048,-172.33925882138675
7.265329664,0.9998742185925401,-172.5952650503741
7.269914112,0.999823857788606,-172.85054623089198
7.27449856,0.9997838515990449,-173.1051693910821
7.279083008,0.9997564132779269,-173.3593537759488
7.283667456,0.9997432865519267,-173.61322352777762
7.288251904,0.999745087574365,-173.86701190801026
7.292836864,0.999761858826311,-174.12097817548226
7.297421312,0.9997927673312389,-174.375241379481
7.30200576,0.9998357599359357,-174.6300316894933
7.306590208,0.9998885033680494,-174.88553921691664
7.311174656,0.9999477568697795,-175.14180261719542
7.315759104,1.0000102149076535,-175.39891965100315
7.320344064,1.000071844478169,-175.65693299430868
7.324928512,1.0001293880724171,-175.91575832165574
7.32951296,1.000179206413115,-176.17536351445509
7.334097408,1.0002183245191216,-176.43559427884037
7.338681856,1.0002445148861192,-176.6962787078116
7.343266304,1.0002561497289097,-176.9572482855867
7.347850752,1.0002524811490696,-177.2182889072268
7.352435712,1.0002337705015223,-177.47917998691378
7.35702016,1.0002010852068186,-177.73972421836734
7.361604608,1.0001561513023338,-177.9997102639452
7.366189056,1.0001018332975682,-178.25900940353964
7.370773504,1.0000414180509227,-178.51751708538558
7.375357952,0.9999780933652387,-178.77513955228176
7.379942912,0.9999158740830164,-179.0319055605742
7.38452736,0.9998585451901126,-179.28784064302093
7.389111808,0.9998092397395243,-179.54299857766344
7.393696256,0.9997709815254733,-179.7975504965625
7.398280704,0.9997460734324801,179.94833489894648
7.402865152,0.9997361580722331,179.69447297581354
7.407450112,0.9997416330779685,179.4406334475992
7.41203456,0.9997623014017596,179.18663311139045
7.416619008,0.9997969722097816,178.9322235747429
7.421203456,0.9998436646096436,178.67723947048196
7.425787904,0.9998995317488177,178.42156446668523
7.430372352,0.9999613120014993,178.16503551093027
7.4349568,1.0000254094618455,177.90762496570844
7.43954176,1.0000880239951988,177.6493504666494
7.444126208,1.0001452987096686,177.39021596725107
7.448710656,1.0001940976608372,177.13035114269874
7.453295104,1.0002311562047235,176.86984862474293
7.457879552,1.0002547676354596,176.6089360579736
7.462464,1.000263091187333,176.34778591002512
7.46704896,1.0002557087704491,176.08663047121036
7.471633408,1.0002329713297164,175.82569481767715
7.476217856,1.0001964677566517,175.56516272582738
7.480802304,1.0001481046815808,175.30520606543394
7.485386752,1.0000905456652838,175.0460148386886
7.4899712,1.000027589313491,174.78766947684383
7.494555648,0.9999628102929354,174.53022938071587
7.499140608,0.9998999135985298,174.2736723806805
7.503725056,0.9998426163115972,174.01794461237319
7.508309504,0.9997945746348371,173.76297412521873
7.512893952,0.9997584442692583,173.50860399468277
7.5174784,0.9997363293301025,173.25465144711436
7.522062848,0.9997297508596192,173.00092663142132
7.526647808,0.9997390045041729,172.7471436516712
7.531232256,0.9997636944269537,172.49314758283
7.535816704,0.9998023450039929,172.23870148226126
7.540401152,0.9998526042954734,171.98366017198126
7.5449856,0.9999115171991994,171.72784738536672
7.549570048,0.9999756385017711,171.4711775733806
7.554154496,1.0000414174610086,171.2135664761733
7.558739456,1.000104474140315,170.95510415059817
7.563323904,1.000161582037833,170.69577980030917
7.567908352,1.0002090044911867,170.4357126971384
7.5724928,1.000243927435434,170.1750804258723
7.577077248,1.000264501678594,169.91407915702393
7.581661696,1.0002693131919462,169.65284141172262
7.586246656,1.0002580238515042,169.39169340233087
7.590831104,1.0002314902721485,169.1307901326475
7.595415552,1.0001909602761772,168.87037082765835
7.6,1.0001388907127813,168.61062129531214
7.604584448,1.0000784594156185,168.35163117823552
7.609168896,1.0000131456811954,168.09355252392
7.613753344,0.9999467924502119,167.83638289103496
7.618338304,0.9998834187407238,167.58015760885147
7.622922752,0.9998267129801168,167.32476419763944
7.6275072,0.9997799477284236,167.0700845683378
7.632091648,0.9997461127640132,166.81603742646203
7.636676096,0.9997271792795817,166.56232477828954
7.641260544,0.9997240880840987,166.3087562701145
7.645845504,0.9997373965093542,166.05517405257746
7.650429952,0.9997660346404811,165.8012855557935
7.6550144,0.9998086547082108,165.54689313353043
7.659598848,0.9998624206834908,165.29185393170607
7.664183296,0.9999243740230573,165.03599224145393
7.668767744,0.9999908962621828,164.77924116311607
7.673352192,1.0000578531519808,164.5216029917773
7.677937152,1.0001214083224967,164.2629900001803
7.6825216,1.0001778887117823,164.0035807921812
7.687106048,1.0002238031757027,163.74345436134396
7.691690496,1.0002563987274096,163.4827665467184
7.696274944,1.0002737431386133,163.22175295951752
7.700859392,1.0002748559981767,162.96058298814566
7.705444352,1.0002596448588559,162.69953832353974
7.7100288,1.0002289013736378,162.43881438894851
7.714613248,1.0001844196758032,162.17861817133172
7.719197696,1.0001288291232144,161.91914319410697
7.723782144,1.0000654384328296,161.66051181392893
7.728366592,0.9999978860590567,161.40280844968436
7.73295104,0.9999302936452727,161.1460357727193
7.737536,0.9998665498146011,160.890228738163
7.742120448,0.9998105154295501,160.63525406397326
7.746704896,0.9997654141061921,160.3810102925779
7.751289344,0.999734106771303,160.12731119186756
7.755873792,0.9997183638650834,159.8739347702635
7.76045824,0.9997191739347564,159.62071378269403
7.7650432,0.9997365247117479,159.36735159170382
7.769627648,0.9997693448017891,159.1136671654508
7.774212096,0.9998158221219299,158.8594167876974
7.778796544,0.9998731071946446,158.60447116243265
7.783380992,0.9999381150498775,158.3486826041774
7.78796544,1.000006655812907,158.09194549287963
7.792549888,1.0000747622787114,157.8342501252891
7.797134848,1.0001386454533117,157.57565690191393
7.801719296,1.0001942679879807,157.31625365614252
7.806303744,1.0002382962930088,157.05612121211834
7.810888192,1.0002683092733522,156.7955232600233
7.81547264,1.000282315172539,156.53460145416219
7.820057088,1.0002796028900343,156.27361073366754
7.824642048,1.000260049855574,156.01277751483605
