freq,mag,phase
6.0,0.999903735938855,-70.7546656863364
6.007835648,0.9998903739610352,-71.09021356663075
6.015670784,0.9998801345234721,-71.42565951697803
6.023506432,0.9998763793477327,-71.7610112406523
6.031341568,0.999879084755803,-72.0963617427533
6.039177216,0.9998882884811474,-72.4318564036722
6.047012864,0.9999032619466894,-72.76747030147402
6.054848,0.9999235006582418,-73.10341739351844
6.062683648,0.999947644636689,-73.43961474767055
6.070519296,0.9999745328338626,-73.77622886084727
6.078354432,1.0000028310821372,-74.11321438492442
6.08619008,1.0000306464611237,-74.45060078561728
6.094025216,1.0000568676969288,-74.7883489901382
6.101860864,1.0000799104992055,-75.12647994985984
6.109696512,1.0000984704168667,-75.46488859894082
6.117531648,1.0001116970395427,-75.80353973367204
6.125367296,1.0001187904534716,-76.14236954776801
6.133202944,1.000119273984685,-76.48123155309989
6.14103808,1.000113224532707,-76.82009870509059
6.148873728,1.0001009683406015,-77.15886236951748
6.156708864,1.0000832986159587,-77.49746985038817
6.164544512,1.0000608279423644,-77.8358278683745
6.17238016,1.0000351473463585,-78.17384665188983
6.180215296,1.0000072436639227,-78.51155919212661
6.188050944,0.9999788129852957,-78.84891792887237
6.195886592,0.9999515327977128,-79.18589035857619
6.203721728,0.9999265801948822,-79.52255458589619
6.211557376,0.9999056167827421,-79.8589387909796
6.219392512,0.99988956485234,-80.19509695907232
6.22722816,0.9998792752760908,-80.53111378823488
6.235063808,0.9998754576909245,-80.86700630678607
6.242898944,0.999878318540758,-81.20295712036508
6.250734592,0.9998874791686844,-81.53898491366546
6.25857024,0.9999025963674463,-81.87521865274262
6.266405376,0.9999230216033976,-82.21168584507731
6.274241024,0.9999473674829579,-82.54850658323137
6.28207616,0.9999745496732855,-82.88565882326824
6.289911808,1.0000029430456232,-83.22323364679814
6.297747456,1.000031038421185,-83.56119300730178
6.305582592,1.000057553566203,-83.89953124702316
6.31341824,1.0000807050627023,-84.23822105862968
6.321253888,1.0000994392775808,-84.5772232428481
6.329089024,1.0001127632136602,-84.9164495245477
6.336924672,1.0001198250555705,-85.25585417694909
6.344759808,1.0001204468089313,-85.59532041148852
6.352595456,1.000114182727539,-85.93476208758739
6.360431104,1.000101910595151,-86.2741043294105
6.36826624,1.0000839524145575,-86.6132562529921
6.376101888,1.000061326263964,-86.95216936672314
6.383937536,1.0000354374459666,-87.29073118760746
6.391772672,1.0000072669583755,-87.62901693104284
6.39960832,0.9999786359268978,-87.96694657122929
6.407443456,0.9999511984791256,-88.30446285155195
6.415279104,0.9999260428788258,-88.64166102013193
6.423114752,0.9999048428165078,-88.97860042946942
6.430949888,0.9998886491869536,-89.31529348234234
6.438785536,0.9998783323873655,-89.6518112269338
6.446621184,0.9998744935834911,-89.98826680364311
6.45445632,0.9998773583527005,-90.32472479708804
6.462291968,0.9998867081245983,-90.66127981637617
6.470127104,0.9999019487831367,-90.99803575998043
6.477962752,0.999922447205697,-91.3350426497182
6.4857984,0.9999470625835623,-91.67236770073892
6.493633536,0.999974503850815,-92.01008128752113
6.501469184,1.0000030844540921,-92.34816279344743
6.509304832,1.0000315154794366,-92.68665312782636
6.517139968,1.0000580802320758,-93.02550199879055
6.524975616,1.0000815484058454,-93.36474940894138
6.532810752,1.0001003586664274,-93.70428932501412
6.5406464,1.0001137749077984,-94.04404565372383
6.548482048,1.0001208366930485,-94.38397953774009
6.556317184,1.0001214560252385,-94.72396617850166
6.564152832,1.00011526875733,-95.0639309258304
6.57198848,1.000102776461593,-95.4038003415398
6.579823616,1.000084796365733,-95.74346011000097
6.587659264,1.0000619793915007,-96.08292556185225
6.5954944,1.0000356389708724,-96.42202728834991
6.603330048,1.000007443433659,-96.76080049238767
6.611165696,0.9999785419809816,-97.09919923295526
6.619000832,0.9999507649614999,-97.43724646490159
6.62683648,0.9999254718919323,-97.77493833074963
6.634672128,0.9999040603559548,-98.11235800223741
6.642507264,0.9998877840707416,-98.44951828453678
6.650342912,0.9998774610453603,-98.78653523396665
6.658178048,0.9998734992782337,-99.12344666925812
6.666013696,0.9998763516518039,-99.46038304180216
6.673849344,0.9998857902693798,-99.79743117044798
6.68168448,0.9999011530880593,-100.1346439559067
6.689520128,0.999921837405247,-100.47218074060856
6.697355776,0.9999466517948905,-100.80995067685046
6.705190912,0.9999742731018678,-101.14811977231767
6.71302656,1.0000032191988115,-101.48670602048404
6.720861696,1.0000318168644555,-101.82565860702478
6.728697344,1.0000586915191523,-102.16501420867714
6.736532992,1.000082163299996,-102.5047289318197
6.744368128,1.0001012717620443,-102.84474723554668
6.752203776,1.0001148238438597,-103.18499409520803
6.760039424,1.0001220199485017,-103.52539558287722
6.76787456,1.0001225454617817,-103.86585665081896
6.775710208,1.0001163202516197,-104.2063174618172
6.783545344,1.0001038760022105,-104.54666911376543
6.791380992,1.0000855197031313,-104.88681704146484
6.79921664,1.000062549943157,-105.22671470779419
6.807051776,1.000036104979186,-105.56627254432354
6.814887424,1.0000074544106445,-105.90550844546776
6.822723072,0.9999784065181659,-106.24436023955131
6.830558208,0.9999504503804789,-106.5828626425152
6.838393856,0.9999248352694496,-106.92102412368601
6.846228992,0.9999032644756083,-107.25885408453678
6.85406464,0.9998868541927037,-107.59645628146063
6.861900288,0.999876410897866,-107.93389275959905
6.869735424,0.9998724252049068,-108.27126325937725
6.877571072,0.99987524690249,-108.60861446990907
6.88540672,0.9998847397980934,-108.94607655919512
6.893241856,0.9999003152410544,-109.28371763821008
6.901077504,0.999921232214856,-109.62162844142533
6.90891264,0.9999461865817862,-109.95986598462434
6.916748288,0.999974111444178,-110.2984335814911
6.924583936,1.0000032601440594,-110.63744562794497
6.932419072,1.000032143821418,-110.97684057681019
6.94025472,1.0000592366173622,-111.31663256458907
6.948089856,1.0000829657639074,-111.65675639339915
6.955925504,1.0001022770870616,-111.99722667859598
6.963761152,1.0001158814682192,-112.33788244118517
6.971596288,1.0001231456548179,-112.67870819818158
6.979431936,1.0001237877102802,-113.0196156867669
6.987267584,1.0001175088244854,-113.36049420674263
6.99510272,1.0001048361110252,-113.70127116362399
7.002938368,1.0000864321389702,-114.04182780439152
7.010773504,1.0000632042149256,-114.38213984803723
7.018609152,1.0000365265896065,-114.72213524025778
7.0264448,1.0000077126329354,-115.06174453714537
7.034279936,0.9999783631211979,-115.40101443256728
7.042115584,0.9999500327224019,-115.73987169510485
7.049951232,0.9999243221949489,-116.07843646323734
7.057786368,0.9999024760187077,-116.41664174890683
7.065622016,0.9998858157896925,-116.75462806621655
7.073457152,0.9998752640404477,-117.09243044207432
7.0812928,0.9998713290073791,-117.43017617349562
7.089128448,0.9998740991619295,-117.76790378436466
7.096963584,0.9998837429053173,-118.10573102305844
7.104799232,0.9998995175246002,-118.44375274344075
7.11263488,0.9999205113973081,-118.78199342670439
7.120470016,0.9999456842912117,-119.12062594587465
7.128305664,0.9999738971596822,-119.459571226337
7.1361408,1.0000032341999674,-119.79891791580883
7.143976448,1.0000324079501275,-120.13870010394687
7.151812096,1.0000598719845515,-120.47885987047775
7.159647232,1.0000838339890044,-120.81936694967129
7.16748288,1.0001032374142118,-121.16016564559551
7.175318528,1.000117086003171,-121.5012228317326
7.183153664,1.0001244023110898,-121.84244529049737
7.190989312,1.0001249245065247,-122.18371393027867
7.198824448,1.0001187647040783,-122.52496739819497
7.206660096,1.000105954463679,-122.86608922371013
7.214495744,1.0000873746684718,-123.20702299395029
7.22233088,1.0000639632050894,-123.54769970798827
7.230166528,1.0000369894210535,-123.888030971268
7.238002176,1.0000078457009187,-124.22800702213925
7.245837312,0.9999782467103228,-124.56760731234371
7.25367296,0.9999496672867945,-124.90681390240621
7.261508096,0.9999236656873687,-125.24566158969262
7.269343744,0.9999016476375304,-125.5842107817983
7.277179392,0.9998848416451953,-125.92251562413622
7.285014528,0.9998741713353658,-126.26065498706285
7.292850176,0.9998701387729934,-126.59871725104446
7.300685824,0.9998730313892974,-126.93675389408443
7.30852096,0.9998826043565214,-127.27487017716729
7.316356608,0.9998984753316721,-127.61321416376188
7.324191744,0.9999197133228859,-127.95178409927505
7.332027392,0.9999452366574564,-128.29067335192633
7.33986304,0.9999736116771446,-128.62993783367548
7.347698176,1.0000032757442405,-128.9696029657616
7.355533824,1.0000328314606892,-129.30968026246055
7.363369472,1.0000603910801447,-129.6501490413356
7.371204608,1.000084645123355,-129.99099423851337
7.379040256,1.0001042636031823,-130.3321226631509
7.386875392,1.0001182193163134,-130.67347116674344
7.39471104,1.0001256855311635,-131.01499835771816
7.402546688,1.000126272153331,-131.35659553514398
7.410381824,1.0001199814305857,-131.69813668974703
7.418217472,1.0001071160435786,-132.03956941875907
7.42605312,1.0000883580892828,-132.38081052867693
7.433888256,1.0000647735194141,-132.72177682654723
7.441723904,1.000037464032658,-133.062403086225
7.44955904,1.0000081139734178,-133.40266455783186
7.457394688,0.9999781745249479,-133.74256041258502
7.465230336,0.9999493170571709,-134.08204691310206
7.473065472,0.999923050471036,-134.42117208169563
7.48090112,0.9999008598532583,-134.7599890481239
7.488736768,0.9998838302091604,-135.0985537322247
7.496571904,0.9998730293357546,-135.43693745046346
7.504407552,0.9998688833873471,-135.77522503801123
7.512242688,0.9998718105928089,-136.1134983475732
7.520078336,0.9998814913616836,-136.45190499065217
7.527913984,0.9998974987253746,-136.79043865012042
7.53574912,0.9999189421115419,-137.1292927633193
7.543584768,0.9999446647212596,-137.4684259320791
7.551420416,0.9999733198880618,-137.80794153101897
7.559255552,1.0000032585314735,-138.14784914604547
7.5670912,1.000033097878331,-138.48816944106363
7.574926336,1.000060935885495,-138.8289077028806
7.582761984,1.0000855180663757,-139.16998204547374
7.590597632,1.000105362040954,-139.51135687249692
7.598432768,1.000119448672365,-139.8530084811571
7.606268416,1.0001270749922373,-140.1947747349106
7.614104064,1.000127647028908,-140.536600285637
7.6219392,1.0001214040105069,-140.8784134285848
7.629774848,1.0001083126508512,-141.22008292602013
7.637609984,1.000089433171201,-141.56156479006003
7.645445632,1.0000655563000758,-141.90277635467004
7.65328128,1.0000380743854478,-142.24365351778874
7.661116416,1.0000083508185877,-142.5841302116436
7.668952064,0.9999781908625364,-142.92422732338687
7.676787712,0.9999489882388894,-143.2639325161441
7.684622848,0.9999223978366554,-143.60326823941315
7.692458496,0.9998999991078126,-143.94230182405877
7.700293632,0.9998828467225845,-144.28105461357592
7.70812928,0.999871840411743,-144.61960684354085
7.715964928,0.9998676675914023,-144.95811105572258
7.723800064,0.9998705398672532,-145.29658941536158
7.731635712,0.9998802487676052,-145.6351421312155
7.73947136,0.9998963952172175,-145.9738771768147
7.747306496,0.9999179967693641,-146.31289548608547
7.755142144,0.9999440396989129,-146.65223116332575
7.76297728,0.999972994723474,-146.99191630709072
7.770812928,1.0000032530999943,-147.33200608514798
7.778648576,1.000033324223363,-147.67254925745132
7.786483712,1.0000615151230179,-148.01345588703998
7.79431936,1.0000864177996518,-148.35470603610386
7.802154496,1.000106397765778,-148.69630220087973
7.809990144,1.0001207499961189,-149.0381139164131
7.817825792,1.0001284020153087,-149.38006869475532
7.825660928,1.0001290854728384,-149.72208797503075
7.833496576,1.0001227251262976,-150.06410508484342
7.841332224,1.0001096625084727,-150.40597378011523
7.84916736,1.0000905435424519,-150.74763548207022
7.857003008,1.0000664928633607,-151.0890135369777
7.864838144,1.0000387151898429,-151.43006049473414
7.872673792,1.0000087160488542,-151.77072161779714
7.88050944,0.9999782086649762,-152.11095867849784
7.888344576,0.9999486797295913,-152.45080567643734
7.896180224,0.9999218664943044,-152.79030534827558
7.904015872,0.9998991003440617,-153.12945509661205
7.911851008,0.9998817254234524,-153.46836348262968
7.919686656,0.9998705596292148,-153.80704115832194
7.927521792,0.9998663069847575,-154.145629081733
7.93535744,0.9998692021912642,-154.4842433163272
7.943193088,0.9998790517787894,-154.82294523620467
7.951028224,0.9998952466699114,-155.16179417969687
7.958863872,0.9999171174371293,-155.50092691247445
7.96669952,0.999943399240543,-155.84035579697064
7.974534656,0.9999726428498571,-156.18018722860944
7.982370304,1.0000032332594815,-156.52042013403556
7.99020544,1.0000336877396991,-156.8610552638702
7.998041088,1.000062240082802,-157.2021164393019
8.005876736,1.0000873125756136,-157.54350675218726
8.013711872,1.0001076446257298,-157.8851988923946
8.02154752,1.000122061879194,-158.22714389312307
8.029383168,1.0001298823712803,-158.5692473614884
8.037218304,1.000130654423608,-158.9113944734735
8.045053952,1.000124214503391,-159.25352588875523
8.052889088,1.0001111223771324,-159.59552563869312
8.060724736,1.000091783915265,-159.93731300778057
8.068560384,1.0000674489409238,-160.27879756193684
8.07639552,1.0000393708155333,-160.61993142774324
8.084231168,1.0000090641754071,-160.96071209827937
8.092066816,0.9999782255770927,-161.30106099142287
8.099901952,0.9999483779926389,-161.6409862442184
8.1077376,0.9999211799820584,-161.98058072185657
8.115572736,0.9998982318666422,-162.31980594822843
8.123408384,0.9998804938976059,-162.65875854880073
8.131244032,0.9998692414830153,-162.9975171761631
8.139079168,0.9998649549192237,-163.33619798991606
8.146914816,0.99986776932619,-163.67484757333617
8.154750464,0.9998777237414039,-164.01358502288093
8.1625856,0.9998941271967112,-164.3525115302922
8.170421248,0.9999161904954151,-164.6916809883192
8.178256384,0.9999427318795943,-165.03118444867175
8.186092032,0.9999722138634867,-165.37105223595773
8.19392768,1.0000031954107045,-165.71135328969774
8.201762816,1.0000339894282724,-166.0520376705442
8.209598464,1.0000628933440714,-166.39315805669332
8.217434112,1.000088274385938,-166.73462371084784
8.225269248,1.0001088901845014,-167.07637641394177
8.233104896,1.0001235846523497,-167.41840928133715
8.240940032,1.0001314203889136,-167.7605774802841
8.24877568,1.000132256558106,-168.10280200615534
8.256611328,1.0001258612481194,-168.44500256711632
8.264446464,1.0001124851763648,-168.7870546222113
8.272282112,1.000093073070883,-169.12888150715244
8.28011776,1.0000684914702789,-169.4704559964046
8.287952896,1.0000401591043189,-169.81162707548998
8.295788544,1.0000095097904107,-170.15243489335725
8.30362368,0.999978260265215,-170.49282576895877
8.311459328,0.9999481117659544,-170.83278346280468
8.319294976,0.9999205493823261,-171.17236611271088
8.327130112,0.9998972216247395,-171.51159901133002
8.33496576,0.9998793817722049,-171.85057082638755
8.342801408,0.9998678834093038,-172.1893495198351
8.350636544,0.9998634269073552,-172.52800220819643
8.358472192,0.9998663456904903,-172.86663822935364
8.366307328,0.9998762943155107,-173.20539717829888
8.374142976,0.9998928653436072,-173.54429758478113
8.381978624,0.999915188830874,-173.8834818943028
8.38981376,0.9999419568517146,-174.22296813025224
8.397649408,0.9999719073338721,-174.56286125768312
8.405485056,1.0000031521578583,-174.90312142801042
8.413320192,1.000034401071989,-175.24382361210556
8.42115584,1.0000635136077365,-175.58494395036962
8.428990976,1.0000892795142586,-175.92642564970626
8.436826624,1.0001102019405808,-176.26818104747576
8.444662272,1.0001250997144053,-176.61018654547937
8.452497408,1.0001331163103402,-176.95237915822614
8.460333056,1.0001339272014063,-177.29459610730274
8.468168704,1.0001274659786161,-177.63679849837686
8.47600384,1.0001141092411476,-177.97887522247882
8.483839488,1.000094424051583,-178.32071249230603
8.491674624,1.000069566011926,-178.66223776822605
8.499510272,1.0000408851467533,-179.00341381279134
8.50734592,1.0000098940744417,-179.34419342342557
8.515181056,0.9999782613541626,-179.6845400621525
8.523016704,0.9999477583606239,179.97552410340825
8.530852352,0.9999198663525934,179.63597871542393
8.538687488,0.9998962563541606,179.2967892832701
8.546523136,0.9998780299305023,178.95788235748128
8.554358272,0.9998664509887827,178.61915492677468
8.56219392,0.9998619544497974,178.2805754467997
8.570029568,0.9998648224819674,177.9419971442273
8.577864704,0.9998748235139304,177.60332517110652
8.585700352,0.9998916243349315,177.2644904926667
8.593536,0.9999141186604439,176.9253875877669
8.601371648,0.9999412419704494,176.58596886370702
8.609206272,0.9999714372065067,176.24616320878172
8.61704192,1.0000031403122858,175.905926515172
8.624877568,1.000034698646997,175.5652912115602
8.632713216,1.0000642572122957,175.22425242157496
8.640548864,1.000090389820703,174.88283527129784
8.648383488,1.000111532458843,174.5411024559107
8.656219136,1.0001266305257268,174.1991493063161
8.664054784,1.0001348867574067,173.8570379803001
8.671890432,1.0001356509774395,173.5148619836979
8.67972608,1.000129254270433,173.1727127339688
8.687560704,1.0001157250494037,172.8306918114635
8.695396352,1.00009586676482,172.48893631406094
8.703232,1.0000707965546345,172.14747927067427
8.711067648,1.00004168221401,171.80637655645856
8.718903296,1.00001041752444,171.4656749100086
8.726738944,0.9999783410119211,171.12539822075232
8.734573568,0.99994735928493,170.78555951322915
8.742409216,0.9999191604880694,170.4461230987638
8.750244864,0.9998952168050609,170.10705163770646
8.758080512,0.9998767823949638,169.76826840981516
8.76591616,0.9998649767161167,169.42967497116774
8.773750784,0.9998603984540291,169.09119694756927
8.781586432,0.9998631131841351,168.75276570550875
8.78942208,0.9998733975584332,168.41422770683974
8.797257728,0.9998902432826129,168.07551473139227
8.805093376,0.9999129967182667,167.73655163486015
8.812928,0.9999403533972513,167.39726500470624
8.820763648,0.9999710413891161,167.05756388352833
8.828599296,1.000003036693462,166.71745802442962
8.836434944,1.0000349482667121,166.37696318849177
8.844270592,1.0000650409406222,166.0360575629143
8.85210624,1.0000914833982941,165.69475412698347
8.859940864,1.0001129374412345,165.35311574485206
8.867776512,1.0001283236288245,165.0112740232623
8.87561216,1.0001366971405086,164.66926729129887
8.883447808,1.0001375841799791,164.32720955252415
8.891283456,1.0001311410385734,163.9851773402619
8.89911808,1.000117418970753,163.64328535007607
8.906953728,1.000097403431018,163.30163854110157
8.914789376,1.000071896845624,162.96031050176697
8.922625024,1.000042594880814,162.61935502165477
8.930460672,1.000010811647263,162.2787912761345
8.938295296,0.9999783532788685,161.938662270161
8.946130944,0.9999470154214368,161.5989795347209
8.953966592,0.9999184318767349,161.2597090227444
8.96180224,0.9998940653359281,160.92079727113014
8.969637888,0.9998753965015418,160.58217288984162
8.977473536,0.9998633655178836,160.24377661184323
8.98530816,0.9998586174423124,159.905511065405
8.993143808,0.9998614312937371,159.5672346749917
9.000979456,0.9998717200562217,159.22889933301653
9.008815104,0.9998887702348376,158.89038210389666
9.016650752,0.9999117807558062,158.55160734671009
9.024485376,0.9999395393836881,158.21250656771255
9.032321024,0.9999705526465233,157.87300790895466
9.040156672,1.0000031215893435,157.53310577442736
9.04799232,1.000035378574043,157.1927713941687
9.055827968,1.0000658279222197,156.8520119186796
9.063662592,1.0000926944754687,156.5108943830553
9.07149824,1.0001144685363839,156.16943661757543
9.079333888,1.0001300353841316,155.82776949148095
9.087169536,1.0001386030655222,155.48592520437646
9.095005184,1.000139598728674,155.14402760578184
9.102840832,1.0001330740850307,154.80216517511022
9.110675456,1.0001192938462777,154.46046742449388
9.118511104,1.0000989326447136,154.1190013012428
9.126346752,1.0000732868544344,153.77782838485032
