freq,mag,phase
6.0,0.9999730517087805,-10.009831649522054
6.011869184,1.0000969454134798,-10.399276818882873
6.02373888,1.0002169947223218,-10.790401522228333
6.035608064,1.0003266313503363,-11.183010519573887
6.04747776,1.0004204866676316,-11.577008906121739
6.059346944,1.000494359759877,-11.97219487304001
6.07121664,1.0005441015300265,-12.368206834998778
6.083085824,1.0005677062197118,-12.764783567040931
6.09495552,1.000563698321481,-13.16154546991976
6.106824704,1.000532317479228,-13.558190128311045
6.1186944,1.0004750505852675,-13.954356129896938
6.130563584,1.0003946364035297,-14.349698166805506
6.14243328,1.0002947944763403,-14.744050963452684
6.154302464,1.0001804273602959,-15.137119820198805
6.16617216,1.0000569095338985,-15.528716892936377
6.178041344,0.9999301376183666,-15.91883152978127
6.18991104,0.9998064269803669,-16.30745404363451
6.201780224,0.9996917528865912,-16.694643367970063
6.21364992,0.9995914214619767,-17.08051652006585
6.225519104,0.9995105509466332,-17.465308256711534
6.2373888,0.9994531621174633,-17.84931965536969
6.249257984,0.9994219016764901,-18.232865154972192
6.26112768,0.9994183873312905,-18.616214703644356
6.272996864,0.9994426799333351,-18.9997954651315
6.28486656,0.9994940890137486,-19.383888839938425
6.296735744,0.9995698301225578,-19.768946605289834
6.30860544,0.9996664957299456,-20.155114846488143
6.320474624,0.9997792631174145,-20.542677279481413
6.33234432,0.9999027408893544,-20.93179985756161
6.344213504,1.0000312423545552,-21.322676583165485
6.3560832,1.0001583002543855,-21.715199833445705
6.367952384,1.0002778732667006,-22.109375889174355
6.37982208,1.0003841161873668,-22.505033604260987
6.391691264,1.0004717627083513,-22.90204018716463
6.40356096,1.0005367877861688,-23.30008346967104
6.415430144,1.0005759461899757,-23.69887020059599
6.42729984,1.000587143170409,-24.098103798439016
6.439169024,1.0005699875451635,-24.497337898414408
6.45103872,1.0005250290903458,-24.896319776235114
6.462907904,1.0004544175767613,-25.294622389000875
6.4747776,1.0003617599214163,-25.691982931523217
6.486646784,1.0002511467496251,-26.088174004623106
6.49851648,1.0001280301722482,-26.482970533650025
6.510385664,0.999998367522364,-26.87620835692419
6.52225536,0.9998682686363318,-27.267940838845558
6.534124544,0.9997440773781514,-27.65812399657748
6.54599424,0.9996319043801486,-28.04688418925856
6.557863424,0.9995371523715665,-28.43439290787019
6.56973312,0.9994642253977745,-28.820927114578907
6.581602304,0.9994170056579509,-29.206787591445263
6.593472,0.9993977227835604,-29.59230199038955
6.605341184,0.9994074724586579,-29.97780953833136
6.61721088,0.9994456787071719,-30.36371130399335
6.629080064,0.9995103603727844,-30.75032847852964
6.64094976,0.9995989949747643,-31.138011409139303
6.652818944,0.9997070624836367,-31.527042243055735
6.66468864,0.9998293215643029,-31.917559823448588
6.676557824,0.9999600228393589,-32.30979297266167
6.68842752,1.0000926524571505,-32.70376856149565
6.700296704,1.0002210803407516,-33.09950637949408
6.7121664,1.0003389511758487,-33.496848908251025
6.724035584,1.0004407131602822,-33.89570603933091
6.73590528,1.0005210141254997,-34.29580578003357
6.747774464,1.0005764907716534,-34.69680943243188
6.75964416,1.0006040631714586,-35.098445223069874
6.771513344,1.000602284263387,-35.50036589977065
6.78338304,1.0005712329833465,-35.90218137410064
6.795252224,1.000512574176733,-36.30350252900966
6.807121408,1.000428744408673,-36.70402362156172
6.818991104,1.0003240349095608,-37.10342875041839
6.830860288,1.0002030906623596,-37.50153982630691
6.842729984,1.0000720622929236,-37.89813845289492
6.854599168,0.9999369377248134,-38.29312442854424
6.866468864,0.9998044826448458,-38.686485146061756
6.878338048,0.9996809776184293,-39.07832032639234
6.890207744,0.9995724209772293,-39.46873948898517
6.902076928,0.9994842425371444,-39.8580503307025
6.913946624,0.9994204141857064,-40.24646422655019
6.925815808,0.9993843792512668,-40.63428039385778
6.937685504,0.9993778640502499,-41.021935323058
6.949554688,0.9994014054630906,-41.40979227230244
6.961424384,0.9994535720858303,-41.79816309530991
6.973293568,0.999532265389349,-42.18748280952615
6.985163264,0.9996333698979929,-42.57801004271605
6.997032448,0.99975238567957,-42.97002328757078
7.008902144,0.9998835247353709,-43.363711550701574
7.020771328,1.0000205139760001,-43.75913955927492
7.032641024,1.0001566385834881,-44.15643745690367
7.044510208,1.0002853261219646,-44.555497834630096
7.056379904,1.000400502085933,-44.956168948267454
7.068249088,1.0004963477475213,-45.35825146124707
7.080118784,1.0005683671702374,-45.76151642199623
7.091987968,1.000613162039546,-46.165606219758054
7.103857664,1.000628213368792,-46.57018940128093
7.115726848,1.0006128419191822,-46.97485050840981
7.127596544,1.000567650525458,-47.379263619477875
7.139465728,1.000494804177819,-47.78300757818935
7.151335424,1.0003977737269198,-48.1857493385584
7.163204608,1.000281289464556,-48.58726321607041
7.175074304,1.0001508209551362,-48.98732649887571
7.186943488,1.0000124205461167,-49.38572344087633
7.198813184,0.9998728659620025,-49.78251000883067
7.210682368,0.9997390437175859,-50.17765043552838
7.222552064,0.9996172883932373,-50.57123166748083
7.234421248,0.9995135608262514,-50.96347370922393
7.246290944,0.9994329618013237,-51.35465635015505
7.258160128,0.999379480687418,-51.74504265113632
7.270029824,0.9993555955669712,-52.13503258295584
7.281899008,0.9993625151270962,-52.52501370527446
7.293768704,0.9994001502333674,-52.9153370620393
7.305637888,0.9994666928740655,-53.306413491777946
7.317507584,0.9995590299059054,-53.69855485509976
7.329376768,0.9996727060896662,-54.09209155283255
7.341246464,0.9998022947018996,-54.48726408951297
7.353115648,0.9999416697328234,-54.88423424062519
7.364985344,1.0000840286874602,-55.283068776304795
7.376854528,1.0002225531608582,-55.683777523532804
7.388724224,1.000350588382477,-56.086276733524485
7.400593408,1.0004617298996266,-56.49036999444208
7.412463104,1.0005508398503506,-56.89583336906546
7.424332288,1.0006133726800515,-57.302332023395216
7.436201984,1.0006464183892279,-57.70959255641537
7.448071168,1.0006481527680442,-58.11714952503581
7.459940864,1.0006186443861282,-58.52461567756602
7.471810048,1.0005589728863722,-58.93163373021316
7.483679744,1.000471979111575,-59.33782343418013
7.495548928,1.000361870144341,-59.74285585698185
7.507418624,1.0002339994320324,-60.1465306104451
7.519287808,1.0000941410482842,-60.54858455807451
7.531157504,0.9999493382530282,-60.94891628063939
7.543026688,0.9998065033545894,-61.347534595135784
7.554896384,0.9996724149405297,-61.744494630936146
7.566765568,0.9995535184347236,-62.13990863996309
7.578635264,0.9994557882443644,-62.53409947990926
7.590504448,0.9993839606683332,-62.9272742165378
7.602373632,0.9993416036002325,-63.319800266968336
7.614243328,0.9993305472346491,-63.71204594943782
7.626112512,0.9993517349451683,-64.10449497504067
7.637982208,0.999404105054284,-64.49745447891759
7.649851392,0.9994853006730757,-64.89136213260302
7.661721088,0.9995914564967553,-65.28653087153185
7.673590272,0.9997172131117006,-65.68328185950855
7.685459968,0.999856966137205,-66.0817699828193
7.697329152,1.0000037505053374,-66.48218660427997
7.709198848,1.0001507698320353,-66.88453387482318
7.721068032,1.0002905617743354,-67.28881118345086
7.732937728,1.00041661048507,-67.6948627887382
7.744806912,1.0005228108659512,-68.10250223390338
7.756676608,1.0006038982939787,-68.51138970460687
7.768545792,1.0006560088345322,-68.92126435216504
7.780415488,1.0006763356068737,-69.33168111543503
7.792284672,1.0006641293597973,-69.74226848309992
7.804154368,1.0006197996734894,-70.15259194762754
7.816023552,1.0005451991167178,-70.56226281200853
7.827893248,1.0004439477640366,-70.97096961403241
7.839762432,1.0003210022570972,-71.37831007168528
7.851632128,1.0001819283207136,-71.78413486812748
7.863501312,1.0000335346185514,-72.18826096372898
7.875371008,0.9998831823389737,-72.59054645358844
7.887240192,0.9997377036125282,-72.99110936532013
7.899109888,0.9996043614943378,-73.38994861053204
7.910979072,0.9994896524929242,-73.7873247487879
7.922848768,0.9993989897802509,-74.18346982592543
7.934717952,0.9993369299584184,-74.57877074389063
7.946587648,0.9993065257015029,-74.97354733858958
7.958456832,0.9993094768095464,-75.36828434767096
7.970326528,0.9993455423945268,-75.76330325285936
7.982195712,0.9994131381508506,-76.1590760913252
7.994065408,0.99950900657737,-76.5559763981002
8.005934592,0.9996288088376565,-76.95431853414811
8.017804288,0.9997665931939169,-77.35439303900402
8.029673472,0.9999158299753226,-77.75638612686978
8.041543168,1.0000694535932297,-78.16036849981496
8.053412352,1.0002200638581882,-78.56637396262519
8.065282048,1.0003602977719765,-78.97433694088629
8.077151232,1.000483356977578,-79.38407818734007
8.089020928,1.0005833749830708,-79.7953170337741
8.100890112,1.0006553402323723,-80.20775254715018
8.112759808,1.0006958513492348,-80.62100322098347
8.124628992,1.0007027618776683,-81.03469057612564
8.136498688,1.000675818771679,-81.44833046457519
8.148367872,1.0006160329080085,-81.86155348875471
8.160237568,1.000526247052344,-82.27391813261889
8.172106752,1.0004107264511284,-82.68515004637518
8.183976448,1.0002749186393742,-83.09487726357776
8.195845632,1.0001253005955137,-83.50288685021526
8.207715328,0.9999690860533716,-83.90907782999118
8.219584512,0.9998136869787857,-84.31339833686573
8.231454208,0.9996667713605648,-84.715905062239
8.243323392,0.9995352514516141,-85.11672632953201
8.255193088,0.999425693293933,-85.51610484168795
8.267062272,0.9993433414792728,-85.91437585489746
8.278931968,0.999292198003051,-86.31189855365207
8.290801152,0.9992749651857054,-86.70907208670272
8.302670848,0.9992924829139221,-87.10632860418423
8.314540032,0.9993440006383562,-87.50412117575148
8.326409728,0.9994271967154025,-87.90282486931265
8.338278912,0.9995379932272482,-88.30289296835569
8.350148608,0.9996713118899778,-88.70457826395202
8.362017792,0.9998207766211615,-89.1081397613407
8.373887488,0.9999791480241761,-89.51374936694333
8.385756672,1.000138745291744,-89.92147246647224
8.397626368,1.0002920915473086,-90.33125933582302
8.409495552,1.0004316183943223,-90.74302796409128
8.421364736,1.0005506004972289,-91.15651052933433
8.433234432,1.0006431400829885,-91.57147477719238
8.445103616,1.0007050173044576,-91.98752224782358
8.456973312,1.0007329698220901,-92.40422883655751
8.468842496,1.0007256009922676,-92.8211809307472
8.480712192,1.0006830735767767,-93.23795934588306
8.492581376,1.0006074029980139,-93.65408149989358
8.504451072,1.000502127531989,-94.06919661128963
8.516320256,1.000372279890747,-94.48291173095873
8.528189952,1.0002239148220513,-94.89500819723615
8.540059136,1.0000641134622148,-95.30526125726573
8.551928832,0.999900589678229,-95.71355517116237
8.563798016,0.9997412549893143,-96.11993107571827
8.575667712,0.9995937284024624,-96.52444064229212
8.587536896,0.9994651673733447,-96.92731718289356
8.599406592,0.9993618754086205,-97.32880440147137
8.611275776,0.9992888527270642,-97.72929506168452
8.62314496,0.9992498028436408,-98.12912989439592
8.635015168,0.9992465342847263,-98.52879785674209
8.646884352,0.9992795144012784,-98.92873426792215
8.658753536,0.9993472438980533,-99.32941142980985
8.67062272,0.9994463334125234,-99.73123895587025
8.682492928,0.999572316374566,-100.13456855816054
8.694362112,0.9997192020966919,-100.539756398693
8.706231296,0.9998798792247328,-100.94692536224689
8.71810048,1.0000466410124937,-101.35631538080477
8.729970688,1.000211599486969,-101.76787695614702
8.741839872,1.0003666485421574,-102.1815863498127
8.753709056,1.0005044480088432,-102.59725709738846
8.76557824,1.0006182813810058,-103.01463634799255
8.777448448,1.000702401774425,-103.43336576276334
8.789317632,1.0007530504089566,-103.85304749483369
8.801186816,1.0007672830546746,-104.27327315794166
8.813056,1.0007446763941779,-104.6935660285331
8.824926208,1.000685947111636,-105.11347201344509
8.836795392,1.000593888972644,-105.5325430261975
8.848664576,1.000472894696894,-105.95038452403104
8.86053376,1.000328501725127,-106.36665299669912
8.872403968,1.0001677383683423,-106.78111221471767
8.884273152,0.9999982579394274,-107.19361810709776
8.896142336,0.9998282801022724,-107.60403910664282
8.90801152,0.9996656661610785,-108.01250963988052
8.919881728,0.9995185807455996,-108.41907242755202
8.931750912,0.9993941434318133,-108.82404270655246
8.943620096,0.9992982456673746,-109.22771366514014
8.95548928,0.9992357533316951,-109.63045451061969
8.967359488,0.9992097814235241,-110.03273065628825
8.979228672,0.9992215317132228,-110.43500448619545
8.991097856,0.999270796164286,-110.83775753503305
9.00296704,0.9993552446662263,-111.24146187674502
9.014837248,0.9994707115872722,-111.64651538221425
9.026706432,0.9996120067731598,-112.05329394464783
9.038575616,0.9997722625129837,-112.4620561683514
9.0504448,0.9999438966843187,-112.87307036177722
9.062315008,1.0001186713091332,-113.2862952155112
9.074184192,1.0002880243928827,-113.70187555532642
9.086053376,1.000443998368988,-114.11958729634442
9.09792256,1.0005789999798476,-114.539247636868
9.109792768,1.0006864534780322,-114.96056566161036
9.121661952,1.000761094057566,-115.38315289681209
9.133531136,1.0007991977889037,-115.80655574978026
9.14540032,1.000798926862386,-116.23032839485339
9.157270528,1.0007601166688178,-116.65398108521951
9.169139712,1.0006844995849709,-117.07706457479912
9.181008896,1.0005755030623118,-117.49906665149082
9.19287808,1.0004384389619692,-117.91963688320976
9.204747264,1.0002796687885005,-118.3384679551684
9.216617472,1.0001067463727038,-118.75531905355544
9.228486656,0.9999280017039603,-119.17008488172138
9.24035584,0.9997519654438123,-119.58266461977603
9.252225024,0.9995871296381489,-119.99321045336382
9.264095232,0.9994415192236372,-120.40190815071466
9.275964416,0.9993221325796566,-120.80900219578932
9.2878336,0.9992348310085244,-121.21490919978174
9.299702784,0.9991839896023142,-121.62000174176865
9.311572992,0.9991722045669126,-122.024812590578
9.323442176,0.9992000489181088,-122.42981603453559
9.33531136,0.9992663724474504,-122.83548070716444
9.347180544,0.9993680778123395,-123.24232233652616
9.359050752,0.9995004508433705,-123.65071160941113
9.370919936,0.9996571587076426,-124.06106818386233
9.38278912,0.9998307961565536,-124.47359942059778
9.394658304,1.0000130927433581,-124.88846849058908
9.406528512,1.0001950710873704,-125.30577629075385
9.418397696,1.0003683250306066,-125.72539953163476
9.43026688,1.0005242226985887,-126.14722851522347
9.442136064,1.0006553566450846,-126.57098726990466
9.454006272,1.0007552208146684,-126.99636837269293
9.465875456,1.0008190825682803,-127.42284549805974
9.47774464,1.0008437532484817,-127.85003611228572
9.489613824,1.000827759708973,-128.27738971725097
9.501484032,1.0007718036441762,-128.70445930637356
9.513353216,1.000678446096612,-129.13063682978557
9.5252224,1.0005521053251787,-129.55562205054844
9.537091584,1.0003985765190442,-129.97892536553505
9.548961792,1.0002252163016783,-130.40031161578116
9.560830976,1.0000403195615657,-130.81955614824074
9.57270016,0.9998526846905862,-131.23653798158216
9.584569344,0.999671388509513,-131.65128145476282
9.596439552,0.9995051039976911,-132.0639778022786
9.608308736,0.9993619845558,-132.4747849771163
9.62017792,0.9992488140725377,-132.88407384163293
9.632047104,0.9991712889162071,-133.29223077332722
9.643917312,0.999133352531416,-133.6997727904272
9.655786496,0.999136739551242,-134.10716218730363
9.66765568,0.99918159356189,-134.5149757940398
9.679524864,0.9992659969755482,-134.92367858971107
9.691395072,0.9993857057119998,-135.33376104062478
9.703264256,0.9995353287631101,-135.74566577438424
9.71513344,0.9997078070470846,-136.15971101376388
9.727002624,0.999894751658281,-136.57608409696832
9.738872832,1.000087252039929,-136.9949951224463
9.750742016,1.0002761204586432,-137.41642163011787
9.7626112,1.0004522933465572,-137.84026288142812
9.774480384,1.0006072608442176,-138.2663189716838
9.786350592,1.000733489861196,-138.69427837748455
9.798219776,1.0008247257907408,-139.1237167977052
9.81008896,1.000876640698298,-139.55419263984516
9.821958144,1.0008865365277981,-139.98519793275048
9.833828352,1.0008537328263891,-140.41616174190364
9.845697536,1.000779684817504,-140.84660687037137
9.85756672,1.0006678146251098,-141.27600294540747
9.869435904,1.0005233451416036,-141.703903565063
9.881306112,1.0003530188353968,-142.1299615350944
9.893175296,1.0001650231828418,-142.553863199139
9.90504448,0.9999683799113102,-142.97546452602936
9.916913664,0.9997722536188796,-143.39469131593566
9.928783872,0.9995863051161277,-143.8116195203802
9.940653056,0.9994193623411607,-144.22640704038517
9.95252224,0.9992796601034761,-144.6393576915113
9.964391424,0.9991739768728831,-145.05083427722653
9.976261632,0.9991074589035456,-145.4613279864934
9.988130816,0.9990834705539728,-145.87134137896516
10.0,0.9991034540908073,-146.28141108753496
10.011869184,0.9991665241955742,-146.69212428986404
10.023738368,0.9992697569001169,-147.10394982965494
10.035608576,0.9994083265058492,-147.51740823980137
10.04747776,0.9995757826049002,-147.93289903919225
10.059346944,0.9997640596243617,-148.35073557460407
10.071216128,0.9999643513664928,-148.77115312939955
10.083086336,1.0001669627522083,-149.19422016317657
10.09495552,1.000362136989878,-149.61988412074476
10.106824704,1.0005406388366154,-150.04806295566553
10.118693888,1.000693602585868,-150.47841465377442
10.130564096,1.0008137378823647,-150.91063663334893
10.14243328,1.0008951462282687,-151.34425564409906
10.154302464,1.00093384049273,-151.77875850730885
10.166171648,1.0009276541917673,-152.21360122944932
10.178041856,1.0008768506216255,-152.64823097936292
10.18991104,1.0007836613106902,-153.08208619025243
10.201780224,1.000652362192505,-153.51464361313825
10.213649408,1.0004891006369612,-153.94549135924703
10.225519616,1.0003016311008661,-154.37424699431563
10.2373888,1.0000988106216926,-154.8006584961625
10.249257984,0.9998903364685173,-155.22458879992334
10.261127168,0.9996860976345356,-155.64604025965792
10.272997376,0.9994961428169123,-156.065095216222
10.28486656,0.9993294717471171,-156.48200554039408
10.296735744,0.9991942538088017,-156.89709373986852
10.308604928,0.9990971639227189,-157.31080828407698
10.320475136,0.9990428908634821,-157.72363585803635
10.33234432,0.999034382942583,-158.13619352198597
10.344213504,0.9990720767771285,-158.5490018955896
10.356082688,0.9991544226579161,-158.96266995486872
10.367952896,0.9992777425613552,-159.37774511257913
10.37982208,0.9994359880402057,-159.79466067612
10.391691264,0.9996218325468568,-160.2138685593086
10.403560448,0.9998266092759546,-160.6356379465571
10.415430656,1.0000402311680565,-161.06017859102514
10.42729984,1.0002526424107068,-161.48750727828957
10.439169024,1.0004536640667516,-161.91757362601317
10.451038208,1.0006335534693185,-162.35012857023915
10.462908416,1.000783630234614,-162.78492853351457
10.4747776,1.0008965741459215,-163.22151027593645
10.486646784,1.0009668960987375,-163.6593691409337
10.498515968,1.0009910095620909,-164.09795822043912
10.510386176,1.0009674301806444,-164.53671218906055
10.52225536,1.00089729850106,-164.97500623549183
10.534124544,1.0007837710357284,-165.41226110480653
10.545993728,1.0006320103937076,-165.84800346987666
10.557863936,1.0004491800782862,-166.2817502005912
10.56973312,1.000243854037247,-166.71319128297426
10.581602304,1.0000259425976261,-167.14206681413393
10.593471488,0.9998056743084892,-167.5683440651117
10.605341696,0.9995937911452109,-167.9919434245797
10.61721088,0.9994003678632158,-168.41311200486106
10.629080064,0.9992348170367765,-168.832098304584
10.640949248,0.9991052041412656,-169.24934384870437
10.652819456,0.9990178979788877,-169.66527371392436
10.66468864,0.9989772807886244,-170.08051171895252
10.676557824,0.9989856024941653,-170.4956055740086
10.688427008,0.9990425318611809,-170.91121897071858
10.700297216,0.9991456644180855,-171.3279289145109
10.7121664,0.9992900784032208,-171.7463132631064
