freq,mag,phase
6.0,1.0001642061530114,17.82566715888947
6.00622592,1.0001400312553026,17.64986953017929
6.012451328,1.000107246338648,17.47440089195142
6.018677248,1.0000678617775056,17.299393519288934
6.024902656,1.0000240561942695,17.124936578850466
6.031128576,0.9999783946683504,16.951161927941698
6.037353984,0.9999333160436168,16.7779124595987
6.043579904,0.999891650013076,16.60530466010257
6.049805312,0.9998555962562639,16.433182360580734
6.056031232,0.9998275056102401,16.26151168555032
6.06225664,0.999808600926929,16.09013339150858
6.06848256,0.9998004494668208,15.918939048152799
6.074707968,0.9998033207333823,15.747729076541033
6.080933888,0.9998170290524393,15.576430828605991
6.087159296,0.9998409352997578,15.404886829137226
6.093385216,0.9998735792511178,15.232915355382687
6.099611136,0.9999132570319309,15.060378741261758
6.105836544,0.999957582394484,14.887263864870606
6.112062464,1.0000041119658962,14.713542729926612
6.118287872,1.0000499707487316,14.53915685771882
6.124513792,1.0000928691347672,14.364132518600044
6.1307392,1.0001300821665706,14.188494394929478
6.13696512,1.000159460465221,14.012426700167138
6.143190528,1.000179359706907,13.836010301706711
6.149416448,1.000188577937912,13.659346559341376
6.155641856,1.0001866950236997,13.482610920817216
6.161867776,1.0001736063681803,13.305930734608278
6.168093184,1.0001500265991523,13.129506103212776
6.174319104,1.0001174664096566,12.953457396119942
6.180544512,1.0000775655808427,12.77786818182894
6.186770432,1.0000326677640632,12.602883093783918
6.192996352,0.9999854634695909,12.42844524115499
6.19922176,0.9999384607285147,12.254737974612796
6.20544768,0.9998945404265064,12.081583390114437
6.211673088,0.9998560574748975,11.908983442737952
6.217899008,0.9998254258690086,11.736857297561839
6.224124416,0.9998043021079253,11.565045091377975
6.230350336,0.9997939310939157,11.393451605195125
6.236575744,0.9997950059877526,11.22195763784895
6.242801664,0.9998074130534171,11.050289340799264
6.249027072,0.9998305150293386,10.8784157352327
6.255252992,0.9998631178677901,10.706097741480894
6.2614784,0.9999031117870332,10.53330207987706
6.26770432,0.9999484031708683,10.35986373278718
6.273929728,0.999996422212062,10.185762052275013
6.280155648,1.0000443409257953,10.011026661215395
6.286381568,1.0000894233671982,9.835597551273132
6.292606976,1.0001291605853193,9.659545765071565
6.298832896,1.0001611171060845,9.482991590243714
6.305058304,1.0001833285871593,9.306058368190659
6.311284224,1.0001948184016434,9.128863833022656
6.317509632,1.000194672068216,8.951557020497608
6.323735552,1.0001830571247077,8.774297160778412
6.32996096,1.000160358494733,8.597270766247354
6.33618688,1.0001279357242148,8.420591313730233
6.342412288,1.0000877494788634,8.244382751564808
6.348638208,1.0000419219961785,8.068822397170562
6.354863616,0.9999931898279966,7.893836573767315
6.361089536,0.9999442769897888,7.7194942219295575
6.367314944,0.9998979958275349,7.545832719228152
6.373540864,0.9998570813879978,7.372727495277665
6.379766784,0.9998238260260014,7.200142764637362
6.385992192,0.9998002464532566,7.027884576226112
6.392218112,0.9997875638286937,6.855933847590444
6.39844352,0.9997867619164861,6.68403665391678
6.40466944,0.9997976936306456,6.512007671373424
6.410894848,0.999819899953082,6.3397896013841395
6.417120768,0.9998521025823491,6.167169811697735
6.423346176,0.9998925752487621,5.994025370010736
6.429572096,0.9999387976299928,5.820276017857851
6.435797504,0.9999882554056134,5.64583295802674
6.442023424,1.0000380992108175,5.470680057579228
6.448248832,1.0000854393048089,5.294845691059557
6.454474752,1.0001276984239418,5.118368229487115
6.46070016,1.0001622713538618,4.9413502361206865
6.46692608,1.0001871853738995,4.763890084986063
6.473152,1.0002009033788566,4.5861549420594
6.479377408,1.0002028326255064,4.4082846577369885
6.485603328,1.000192601424176,4.230428687462385
6.491828736,1.000170928840181,4.052775297391049
6.498054656,1.0001389102301297,3.8754624683332493
6.504280064,1.000098480182707,3.6986587179459294
6.510505984,1.0000517270271247,3.522433466121918
6.516731392,1.0000015425565907,3.346840814421497
6.522957312,0.9999506533969116,3.171901740234766
6.52918272,0.9999021747543086,2.9976773271086046
6.53540864,0.9998586873097541,2.824040628023376
6.541634048,0.9998227784569773,2.6509887902614664
6.547859968,0.9997965688038415,2.478296268610857
6.554085376,0.9997814983207626,2.305890645640592
6.560311296,0.9997785922294808,2.133588825714509
6.566537216,0.9997879766489193,1.9612354727982917
6.572762624,0.9998091548058826,1.7886751381040824
6.578988544,0.9998408602097733,1.615695476888787
6.585213952,0.999881396730095,1.4422233279730472
6.591439872,0.9999285911420385,1.26814207965328
6.59766528,0.9999794036877923,1.0933402616223131
6.6038912,1.0000311426058992,0.9177951398901073
6.610116608,1.0000809677525686,0.7415922609742434
6.616342528,1.0001256979061761,0.5646689303305448
6.622567936,1.0001630221323041,0.38714629864843836
6.628793856,1.0001904858367225,0.20917040888957686
6.635019264,1.0002067347510246,0.030857089339080247
6.641245184,1.000210743332124,-0.14760689008537048
6.647470592,1.0002024026980803,-0.32607846823029596
6.653696512,1.0001818029799914,-0.5043658581444117
6.659922432,1.0001503049544065,-0.6822854398034522
6.66614784,1.0001095561783362,-0.8597643374998752
6.67237376,1.0000622332012914,-1.0366406992761936
6.678599168,1.0000106033143843,-1.2128679879422157
6.684825088,0.9999579353166663,-1.3883933979247225
6.691050496,0.9999069705944306,-1.5632047544969119
6.697276416,0.9998608519376679,-1.7373746828502536
6.703501824,0.9998221930217539,-1.9109595880404366
6.709727744,0.9997932522227073,-2.0840924763336606
6.715953152,0.9997756903265193,-2.2569484078930255
6.722179072,0.9997705190266447,-2.4296604458807547
6.72840448,0.9997781303611768,-2.602371189620649
6.7346304,0.999798066555981,-2.7753108968085494
6.740855808,0.9998291843078333,-2.948623137381004
6.747081728,0.9998699864466342,-3.1224241577535876
6.753307648,0.9999176201601638,-3.296882815001668
6.759533056,0.9999699033915886,-3.47203556265311
6.765758976,1.0000235483342845,-3.647938789300897
6.771984384,1.0000755956028964,-3.8246144954877055
6.778210304,1.0001229731205712,-4.0019901584606
6.784435712,1.0001630544282907,-4.179982025407805
6.790661632,1.0001934202480762,-4.358452948528384
6.79688704,1.0002123086944097,-4.537375352646339
6.80311296,1.0002186439056409,-4.716414801910032
6.809338368,1.0002120071907137,-4.8954864067079855
6.815564288,1.0001926671577879,-5.074421010390244
6.821789696,1.0001619305592908,-5.25304829842809
6.828015616,1.0001212775288082,-5.4311799648884795
6.834241024,1.0000732141825477,-5.608725225718485
6.840466944,1.0000203218933799,-5.785577591022624
6.846692352,0.9999656088668188,-5.961744012337929
6.852918272,0.9999124788034717,-6.137151701281035
6.859144192,0.9998636875714286,-6.3118948154332415
6.8653696,0.99982216338883,-6.48602118272178
6.87159552,0.9997903718720886,-6.659668305543241
6.877820928,0.9997700759296564,-6.832966259439137
6.884046848,0.999762615855374,-7.006085796328309
6.890272256,0.9997682309586166,-7.17919849591578
6.896498176,0.9997867692540394,-7.3524991601289695
6.902723584,0.999817205871639,-7.5261771036949625
6.908949504,0.9998578263052543,-7.700367657331272
6.915174912,0.9999061053849725,-7.875158374352863
6.921400832,0.9999596736599755,-8.050669356079435
6.92762624,1.0000152848433725,-8.226974622990893
6.93385216,1.0000696993152307,-8.404029761569037
6.940077568,1.0001197785840061,-8.581857370901233
6.946303488,1.000162656249728,-8.76033487764093
6.952529408,1.0001958218244686,-8.939371238529782
6.958754816,1.0002175494817236,-9.118819750714131
6.964980736,1.0002264180056855,-9.298505053295576
6.971206144,1.0002217338667039,-9.478246395230972
6.977432064,1.000203908318891,-9.65784199327436
6.983657472,1.0001739381218253,-9.83709822044959
6.989883392,1.0001334565567515,-10.015942974403712
6.9961088,1.0000847724928124,-10.194176099067322
7.00233472,1.000030716133704,-10.37173472100981
7.008560128,0.9999742278248851,-10.548536060430292
7.014786048,0.9999186803396944,-10.724576334385361
7.021011456,0.999867180539267,-10.899914877041452
7.027237376,0.9998227310105622,-11.074574464669977
7.033462784,0.9997880412667283,-11.248752431186238
7.039688704,0.999764963801733,-11.42249260211619
7.045914624,0.9997548986449368,-11.596065261349672
7.052140032,0.9997583784081798,-11.76960247399479
7.058365952,0.9997754433352037,-11.94329286838169
7.06459136,0.9998049003995032,-12.117326717755807
7.07081728,0.9998452675240479,-12.291856386494059
7.077042688,0.9998942500793949,-12.466974242506268
7.083268608,0.9999489087291564,-12.642885167482437
7.089494016,1.0000063110390711,-12.81958642017061
7.095719936,1.0000630155834156,-12.997087599483361
7.101945344,1.0001157726354715,-13.1753421431946
7.108171264,1.000161652234564,-13.354355793038804
7.114396672,1.0001979307886821,-13.533907991634846
7.120622592,1.0002224822408283,-13.713975063957678
7.126848,1.0002339286064366,-13.894240241823033
7.13307392,1.0002314350500652,-14.07461221373127
7.13929984,1.0002153414085062,-14.254881613346958
7.145525248,1.0001863646459204,-14.43487840609694
7.151751168,1.000146171571188,-14.614419007901187
7.157976576,1.0000970850129318,-14.793362767435331
7.164202496,1.000041754140574,-14.97160422921872
7.170427904,0.9999835542899496,-15.149103063519814
7.176653824,0.9999255953064902,-15.325788637376219
7.182879232,0.9998713875416814,-15.501725006612043
7.189105152,0.9998241333062752,-15.677009070896506
7.19533056,0.9997861401302461,-15.851700675036156
7.20155648,0.9997600997503675,-16.02595679236686
7.207781888,0.9997473890712525,-16.19996032430789
7.214007808,0.999748601840038,-16.37392665231623
7.220233216,0.9997638648895008,-16.547995731119094
7.226459136,0.9997922199667569,-16.722403296922987
7.232685056,0.9998323417497584,-16.897271611129753
7.238910464,0.9998816556692348,-17.072823105319014
7.245136384,0.9999374124652125,-17.24909103254823
7.251361792,0.9999965254182147,-17.426161540895862
7.257587712,1.0000556522566113,-17.604129754996105
7.26381312,1.0001111264036717,-17.782841353487125
7.27003904,1.0001600523955285,-17.962320045734863
7.276264448,1.0001993252395796,-18.142466370203238
7.282490368,1.0002270003430247,-18.32306186664075
7.288715776,1.0002412373734348,-18.50398026478903
7.294941696,1.00024118140612,-18.685044611519054
7.301167104,1.0002268715271518,-18.866013426405203
7.307393024,1.0001990720098741,-19.046680356011795
7.313618432,1.0001592368486336,-19.22695935482466
7.319844352,1.0001098496020133,-19.406646154163344
7.326070272,1.000053632016352,-19.585590448342124
7.33229568,0.9999936907184238,-19.763787324095563
7.3385216,0.9999334020012467,-19.94116219526165
7.344747008,0.9998764354257095,-20.11772609736259
7.350972928,0.9998259612400413,-20.29361643588169
7.357198336,0.9997850710927801,-20.46885403654599
7.363424256,0.9997557678239509,-20.643639962346008
7.369649664,0.9997401221268033,-20.8181295060777
7.375875584,0.9997388707522284,-20.99250110922745
7.382100992,0.9997522297633076,-21.167020199314035
7.388326912,0.9997793743555965,-21.341809745051375
7.39455232,0.9998189138284289,-21.51706540551603
7.40077824,0.9998685163678401,-21.692943700157038
7.407003648,0.9999252317956554,-21.869610399699063
7.413229568,0.9999860160437479,-22.047114759416047
7.419455488,1.0000473970819133,-22.2254465596764
7.425680896,1.0001057560285707,-22.404649552509806
7.431906816,1.0001577560088837,-22.584656409118434
7.438132224,1.0002002813764497,-22.765337387238638
7.444358144,1.0002311515465792,-22.94650280587111
7.450583552,1.0002483527674422,-23.128070932015845
7.456809472,1.00025089918049,-23.309781451040436
7.46303488,1.0002385613970466,-23.491473657388934
7.4692608,1.0002122377378824,-23.672892539164977
7.475486208,1.0001729219522573,-23.853920393826108
7.481712128,1.000123370779059,-24.034366841573505
7.487937536,1.0000661488524156,-24.214061996694447
7.494163456,1.0000045037976184,-24.39297467208293
7.500388864,0.9999419737389769,-24.57104283493144
7.506614784,0.9998822536098266,-24.748280110218946
7.512840704,0.999828740951408,-24.924765738253807
7.519066112,0.9997842182860756,-25.100619939202748
7.525292032,0.9997519279917249,-25.275909589004563
7.53151744,0.9997331200596417,-25.450918618209506
7.53774336,0.9997293408073648,-25.62576071945249
7.543968768,0.9997406375495241,-25.80068178662074
7.550194688,0.9997662307131978,-25.975855334275064
7.556420096,0.9998049841743643,-26.151517858783695
7.562646016,0.9998546507343749,-26.327764260583894
7.568871424,0.9999123361996659,-26.504797871560232
7.575097344,0.999974773993209,-26.682707990544934
7.581322752,1.00003834892489,-26.861484017398592
7.587548672,1.000099519977117,-27.041179029821315
7.59377408,1.0001546537558221,-27.221657870406144
7.6,1.0002007401105057,-27.402889886211593
7.60622592,1.0002347467643897,-27.58466803418675
7.612451328,1.0002551558012651,-27.766898733091697
7.618677248,1.0002603861383803,-27.949295676279526
7.624902656,1.0002503753974668,-28.131678214949147
7.631128576,1.0002254460222906,-28.31388945410688
7.637353984,1.0001871253411752,-28.495659838230754
7.643579904,1.0001374440150552,-28.67684885227136
7.649805312,1.0000793257723433,-28.85733980961188
7.656031232,1.0000161749160172,-29.0369957476088
7.66225664,0.999951435223183,-29.215796231302036
7.66848256,0.9998888790416088,-29.39371735189346
7.674707968,0.9998320964720243,-29.57087372529985
7.680933888,0.9997844662933688,-29.747284843046227
7.687159296,0.9997484903286532,-29.923201845907112
7.693385216,0.9997265860814419,-30.09868330488096
7.699611136,0.9997199003721208,-30.273985300744435
7.705836544,0.9997287501266714,-30.44933746246664
7.712062464,0.9997527844386261,-30.624939933995037
7.718287872,0.9997906533951422,-30.800992898924378
7.724513792,0.9998402124618369,-30.977630672045535
7.7307392,0.9998987692498457,-31.155072912312832
7.73696512,0.9999627810039491,-31.33336457053403
7.743190528,1.0000286094350037,-31.51258891093445
7.749416448,1.0000925463621895,-31.69270654597514
7.755641856,1.0001509374969597,-31.873718841182182
7.761867776,1.0002003673520288,-32.05548437720931
7.768093184,1.000238049351501,-32.23790508236814
7.774319104,1.0002615700363031,-32.42076144801567
7.780544512,1.00026988013195,-32.60386104841702
7.786770432,1.0002622228955276,-32.786991759318425
7.792996352,1.0002389798704174,-32.9699589869571
7.79922176,1.0002016531860596,-33.15252016494109
7.80544768,1.0001522284705022,-33.33449709895573
7.811673088,1.00009339193892,-33.51576795519667
7.817899008,1.000028761219125,-33.69619274230617
7.824124416,0.9999617808433967,-33.87574528320497
7.830350336,0.999896387748048,-34.05441466863218
7.836575744,0.9998364066847893,-34.23222034016013
7.842801664,0.9997852280794302,-34.409287318112625
7.849027072,0.999745806472821,-34.5857358018508
7.855252992,0.9997203486808295,-34.76179372584108
7.8614784,0.9997105074773093,-34.93757831276921
7.86770432,0.9997168789837808,-35.11337871257405
7.873929728,0.9997391399004613,-35.28936862794973
7.880155648,0.9997759769718356,-35.465839422053264
7.886381568,0.9998253168987525,-35.64289439633552
7.892606976,0.9998843738625077,-35.820702415429935
7.898832896,0.9999497337296783,-35.999428227082326
7.905058304,1.0000178277944083,-36.17907354739406
7.911284224,1.000084593566088,-36.35968478100974
7.917509632,1.0001462525717801,-36.54120622688971
7.923735552,1.000199326431107,-36.7235461422113
7.92996096,1.0002405188713135,-36.906568310242186
7.93618688,1.0002675585194944,-37.090054826938015
7.942412288,1.0002791241968443,-37.273870422749376
7.948638208,1.0002740314642669,-37.45775307595977
7.954863616,1.0002528361789926,-37.641491500844594
7.961089536,1.0002166367476797,-37.82485634859509
7.967314944,1.0001675669625478,-38.007625042671464
7.973540864,1.0001082673421773,-38.18971333147796
7.979766784,1.0000421301722426,-38.370947698404436
7.985992192,0.9999730074609288,-38.551286508118444
7.992218112,0.9999048541019734,-38.73069325475082
7.99844352,0.9998415581808928,-38.90920589247093
8.00466944,0.9997867100782544,-39.086935456007296
8.010894848,0.9997435601988468,-39.263981048992065
8.017120768,0.9997145897114497,-39.440556419226546
8.023346176,0.9997015253720936,-39.616871684504595
8.029572096,0.9997052394088696,-39.793116497917744
8.035797504,0.999725383989779,-39.969585067012034
8.042023424,0.9997608985221984,-40.14643954078176
8.048248832,0.9998098040296942,-40.323889191432734
8.054474752,0.9998692312287115,-40.502118603702854
8.06070016,0.9999360405574369,-40.6812621386059
8.06692608,1.0000061822139357,-40.861331413050486
8.073152,1.0000757143741017,-41.042394647677554
8.079377408,1.0001407830871478,-41.22442401031327
8.085603328,1.0001974977839583,-41.407346065829074
8.091828736,1.0002424189485029,-41.59096617029316
8.098054656,1.0002732245892116,-41.77515654470822
8.104280064,1.0002880210276506,-41.95966207514539
8.110505984,1.0002859153065429,-42.14432159738013
8.116731392,1.000266896893935,-42.32882968099054
8.122957312,1.000232170722863,-42.51302183270715
8.12918272,1.0001834767926414,-42.69663728468582
8.13540864,1.0001237843995747,-42.87957366996694
8.141634048,1.0000564333952773,-43.061630465608076
8.147859968,0.9999851520836278,-43.24274064074691
8.154085376,0.9999142841678256,-43.42292716399725
8.160311296,0.9998475745500814,-43.602143740910215
8.166537216,0.9997890133214946,-43.78056391481109
8.172762624,0.9997421218669028,-43.958229825499025
8.178988544,0.9997093993338309,-44.13541939049855
8.185213952,0.999692890728059,-44.31225140905066
8.191439872,0.9996935036221426,-44.48900933431281
8.19766528,0.999711331996282,-44.665881467409285
8.2038912,0.9997453263402526,-44.84315727944118
8.210116608,0.9997936148618268,-45.021013415220814
8.216342528,0.9998533965436749,-45.19964006018206
8.222567936,0.9999214876661315,-45.37919568389581
8.228793856,0.9999937452852242,-45.559689407123834
8.235019264,1.0000660132661334,-45.7412468742887
8.241245184,1.0001343616347258,-45.923798559422906
8.247470592,1.0001948410476158,-46.10726342281505
8.253696512,1.000243753945838,-46.29149789220395
8.259922432,1.0002783386478193,-46.476357413318524
8.26614784,1.0002966785395941,-46.66160153405388
8.27237376,1.0002976200155487,-46.847021216089274
8.278599168,1.0002811769750277,-47.032328557973585
8.284825088,1.0002479440768515,-47.21738158874556
8.291050496,1.000200099497714,-47.40182615178464
8.297276416,1.0001400244098066,-47.585612583541206
8.303501824,1.0000716336623965,-47.76852070033395
8.309727744,0.9999983110362242,-47.950495579837465
8.315953152,0.9999247167398232,-48.13145876481525
8.322179072,0.9998545267264364,-48.31145734268005
8.32840448,0.9997923396781982,-48.49055914874281
8.3346304,0.9997413652133285,-48.66889438864045
8.340855808,0.9997047026090895,-48.84665206039828
8.347081728,0.9996844957679244,-49.024032693866694
8.353307648,0.9996819672325511,-49.20127329197172
8.359533056,0.9996972213703882,-49.37861996956339
8.365758976,0.9997295057418468,-49.55633258962694
8.371984384,0.9997768201347108,-49.73461709211596
8.378210304,0.9998368404881437,-49.91363168955007
8.384435712,0.9999058645105329,-50.093606459271605
8.390661632,0.9999801449384619,-50.27455631439611
8.39688704,1.000055304244336,-50.45657514070304
8.40311296,1.000127052865071,-50.639626208082284
8.409338368,1.0001911985463747,-50.82366327091879
8.415564288,1.000244148300036,-51.008513377100414
8.421789696,1.0002828076614696,-51.19406618055393
8.428015616,1.00030499456812,-51.37999884907858
8.434241024,1.00030936037335,-51.56618843910191
8.440466944,1.0002954588095165,-51.75236818897862
8.446692352,1.0002641065224787,-51.938235699567166
8.452918272,1.000217163876938,-52.1235894287791
8.459144192,1.0001572185798173,-52.308230410195236
8.4653696,1.0000877881324062,-52.492030657878786
8.47159552,1.0000125890916294,-52.674847964190214
8.477820928,0.9999360983293347,-52.8566187747558
8.484046848,0.9998626087933407,-53.03739707959592
8.490272256,0.9997964617295242,-53.217230988377594
