freq,mag,phase
6.0,0.9994348934213186,-47.33844777184498
6.003521024,0.9995215708240092,-47.48952605633397
6.007042048,0.9996415141906417,-47.642137437344246
6.010563584,0.9997841018773911,-47.796672322990574
6.014084608,0.9999404018014199,-47.953348374166396
6.017605632,1.0001010848549594,-48.11236578996925
6.021126656,1.000255901968675,-48.27372576471645
6.02464768,1.000395802740252,-48.43720483027533
6.028169216,1.0005115619241787,-48.6025016710293
6.03169024,1.0005964193323935,-48.76934831685094
6.035211264,1.0006451080956267,-48.937151533689914
6.038732288,1.0006546667866416,-49.105437897845704
6.042253312,1.000624599673899,-49.27362842401982
6.045774848,1.0005563782482352,-49.44112547933863
6.049295872,1.0004542825540228,-49.60749099350898
6.052816896,1.0003248299152077,-49.772168341882036
6.05633792,1.0001757425076179,-49.93493604483821
6.059858944,1.000016402718418,-50.09554632040774
6.06338048,0.999856149805546,-50.253878330254274
6.066901504,0.9997054122538198,-50.41006597180794
6.070422528,0.9995731730743619,-50.56421578622439
6.073943552,0.9994677817127934,-50.7167070848067
6.077464576,0.9993953452425214,-50.867969344569936
6.080986112,0.9993607580348105,-51.01853123047475
6.084507136,0.9993660474453836,-51.16885197324705
6.08802816,0.9994108023399039,-51.31964146601837
6.091549184,0.9994925373996131,-51.471373543984846
6.095070208,0.9996058020091187,-51.62450222518025
6.098591744,0.999743997659569,-51.779502596827044
6.102112768,0.9998984535991857,-51.93661300131354
6.105633792,1.0000597764918409,-52.09603377952243
6.109154816,1.0002177005195263,-52.257787944989396
6.11267584,1.000363020778294,-52.421731868021126
6.116197376,1.0004865002460757,-52.58763337461201
6.1197184,1.0005806429401938,-52.755194496417616
6.123239424,1.000639353676129,-52.923848000792724
6.126760448,1.0006593763609268,-53.09310712006501
6.130281472,1.0006393646272986,-53.2624074373032
6.133803008,1.0005805034385742,-53.43122156204938
6.137324032,1.0004862894896065,-53.59895376122384
6.140845056,1.0003627438502085,-53.7651335804248
6.14436608,1.0002172797129525,-53.92947059504516
6.147887104,1.0000586150588073,-54.09163696430605
6.15140864,0.9998969116416622,-54.251588065006594
6.154929664,0.999741896233293,-54.409301121594915
6.158450688,0.999603267494633,-54.56495565736726
6.161971712,0.9994896122022019,-54.718812595983906
6.165492736,0.999407624083344,-54.871304220609765
6.169014272,0.9993624643568428,-55.0229318610676
6.172535296,0.9993572383054026,-55.17424554338886
6.17605632,0.9993918408668669,-55.32581582365501
6.179577344,0.9994648191640176,-55.47814754514638
6.183098368,0.9995708964791666,-55.63183257486084
6.186619904,0.9997041388532494,-55.78732397914758
6.190140928,0.9998559024972312,-55.94483355365874
6.193661952,1.0000173209311043,-56.1046378568144
6.197182976,1.000177953236838,-56.266808553218176
6.200704,1.0003282624012932,-56.43118727733163
6.204225536,1.0004589705812312,-56.59767801493792
6.20774656,1.000562024239046,-56.76583383811684
6.211267584,1.000630846459224,-56.935276245256276
6.214788608,1.0006613462052159,-57.105498980202505
6.218309632,1.0006517936765305,-57.275899025554374
6.221831168,1.0006026077553591,-57.44590521380576
6.225352192,1.0005168491480014,-57.61498969514314
6.228873216,1.0003997262944904,-57.78267948213751
6.23239424,1.0002583777349068,-57.94855016039001
6.235915264,1.0001014991986517,-58.112331081837254
6.2394368,0.9999387348745142,-58.273841083465385
6.242957824,0.9997803322166123,-58.433107236303776
6.246478848,0.9996356447384596,-58.59025447640822
6.249999872,0.9995139727714399,-58.7455150286376
6.253520896,0.9994225832729019,-58.89926707842668
6.257042432,0.9993672234421762,-59.05201713121469
6.260563456,0.9993511833432065,-59.20430053068871
6.26408448,0.9993756702613368,-59.35668778016373
6.267605504,0.9994391131048549,-59.50972650816894
6.271126528,0.9995374364129829,-59.663956728860605
6.274648064,0.999664938560265,-59.81986684029231
6.278169088,0.9998136256843523,-59.977782417738176
6.281690112,0.999974249414068,-60.1379941443328
6.285211136,1.0001368211123505,-60.300493004653376
6.28873216,1.000291803823779,-60.465342059338816
6.292253696,1.000429199043615,-60.63229764011718
6.29577472,1.0005407351593447,-60.80110952325043
6.299295744,1.0006195601059908,-60.971248430556045
6.302816768,1.0006607157983702,-61.14237817761346
6.306337792,1.0006617790434318,-61.31380836432256
6.309859328,1.0006227546469346,-61.48502956333811
6.313380352,1.0005456999850932,-61.65543227728566
6.316901376,1.0004355267123046,-61.824549057419276
6.3204224,1.000299093662409,-61.99192840991364
6.323943424,1.000144576372932,-62.1572972400678
6.32746496,0.9999816548423445,-62.32038287370341
6.330985984,0.9998200512804633,-62.481228343498074
6.334507008,0.9996702235343675,-62.63985713747351
6.338028032,0.999540855524577,-62.79654475537114
6.341549056,0.9994401764568849,-62.95159639901555
6.345070592,0.9993744981668149,-63.10550589729804
6.348591616,0.9993479474648433,-63.25878754522798
6.35211264,0.9993617501111552,-63.41199905999571
6.355633664,0.999415426331261,-63.56572972990385
6.359154688,0.9995054903386205,-63.7205759259107
6.362676224,0.9996266000571091,-63.876947186677505
6.366197248,0.9997712423032323,-64.0352557914217
6.369718272,0.9999303922584858,-64.19576220358452
6.373239296,1.0000943893640322,-64.35864138006062
6.37676032,1.00025321215226,-64.52386871662407
6.380281856,1.0003969802328447,-64.69130557476369
6.38380288,1.0005168012980692,-64.8606325561095
6.387323904,1.000605412245808,-65.03150661632928
6.390844928,1.0006571626173995,-65.20347115636523
6.394365952,1.0006690751990501,-65.37590818232769
6.397887488,1.0006402734896684,-65.54820951107638
6.401408512,1.0005727467277346,-65.71989360444144
6.404929536,1.0004702104666938,-65.8904438002722
6.40845056,1.0003393880131377,-66.05930018264846
6.411971584,1.0001878618228854,-66.2262114221726
6.41549312,1.0000253371854961,-66.39091726512447
6.419014144,0.9998616579915081,-66.55330606901504
6.422535168,0.9997068407850329,-66.71345020766562
6.426056192,0.9995704111844472,-66.87155362662257
6.429577216,0.9994607986855583,-67.02796858801418
6.433098752,0.9993849162930964,-67.18302078334848
6.436619776,0.9993473096540154,-67.33735697313362
6.4401408,0.9993503424507592,-67.49143154045237
6.443661824,0.9993938620636812,-67.64590765687595
6.447182848,0.9994753712897427,-67.80128911395174
6.450704384,0.9995895553549133,-67.95813859756429
6.454225408,0.9997292898987407,-68.11680073552954
6.457746432,0.9998863718849633,-68.27768809640862
6.461267456,1.0000511537898396,-68.44087318022001
6.46478848,1.000213039146373,-68.60647344691316
6.468310016,1.0003625665755138,-68.7742900730919
6.47183104,1.0004903951658182,-68.94413622294093
6.475352064,1.0005882777097068,-69.11567202706853
6.478873088,1.000650737191235,-69.2883461508931
6.482394112,1.0006737544773294,-69.46173094621693
6.485915648,1.0006556046388695,-69.63516132920317
6.489436672,1.0005976781839219,-69.80806936641467
6.492957696,1.000503549561589,-69.97997222589686
6.49647872,1.0003788315510127,-70.15031598742856
6.499999744,1.000231180857573,-70.31876424459615
6.50352128,1.0000698056207895,-70.48500957804026
6.507042304,0.9999045055617178,-70.64897186186803
6.510563328,0.9997454719174885,-70.81065371201653
6.514084352,0.9996023236866673,-70.97022036342248
6.517605888,0.9994842042380643,-71.12792753759723
6.521126912,0.9993982489608049,-71.28421452354041
6.524647936,0.999349782986834,-71.43959351028381
6.52816896,0.9993417898268228,-71.59456127490236
6.531689984,0.9993748502509939,-71.74976351537428
6.53521152,0.999446747099939,-71.90575297756459
6.538732544,0.9995533338423284,-72.06307802430163
6.542253568,0.9996877714473117,-72.22214084644044
6.545774592,0.9998421279427384,-72.38332257453708
6.549295616,1.000006728057067,-72.54680613829005
6.552817152,1.000171312909733,-72.71268897225076
6.556338176,1.0003260138660452,-72.88090313538176
6.5598592,1.0004611492425806,-73.05125717272261
6.563380224,1.0005683805174268,-73.22332844546587
6.566901248,1.0006413998816825,-73.39675992145447
6.570422784,1.0006752044810465,-73.5710039020542
6.573943808,1.0006681419807488,-73.74546957333236
6.577464832,1.0006204874784896,-73.91956581590323
6.580985856,1.0005351559899067,-74.09273038583301
6.58450688,1.0004172982097974,-74.2644987351148
6.588028416,1.0002742090268897,-74.43446284936226
6.59154944,1.000114578174804,-74.60228740846783
6.595070464,0.9999483138679434,-74.76781535830774
6.598591488,0.99978569037791,-74.9310090918857
6.602112512,0.9996366004031663,-75.09202519545364
6.605634048,0.9995102544571832,-75.25108972544015
6.609155072,0.9994144883886353,-75.40858725977374
6.612676096,0.9993552432134021,-75.56500804476855
6.61619712,0.9993360014679417,-75.72092944890922
6.619718144,0.9993581212324654,-75.87689015082225
6.62323968,0.999420282829832,-76.0334745410706
6.626760704,0.9995186417556936,-76.19126735293966
6.630281728,0.9996470612130821,-76.3507286395315
6.633802752,0.9997977586257252,-76.51221017207287
6.637323776,0.9999614892889773,-76.67595096486355
6.640845312,1.0001281042275594,-76.84211548514236
6.644366336,1.0002873851911465,-77.010658814036
6.64788736,1.0004294631444046,-77.18139280892996
6.651408384,1.0005456766507637,-77.35402213920136
6.654929408,1.000628953935563,-77.52808399398353
6.658450944,1.0006738816631566,-77.70312460887014
6.661971968,1.0006780819701568,-77.87854183603892
6.665492992,1.000641059644551,-78.05376764704225
6.669014016,1.0005648757450685,-78.22823403864268
6.67253504,1.0004545974687808,-78.40138103554186
6.676056576,1.0003167008946523,-78.57281471197238
6.6795776,1.000159643883523,-78.74217185870226
6.683098624,0.9999933717321715,-78.90921272854521
6.686619648,0.9998275914181035,-79.0739640529279
6.690140672,0.9996730764277914,-79.23645666931243
6.693662208,0.9995389981543427,-79.3968926358648
6.697183232,0.9994336215546482,-79.55563202069115
6.700704256,0.9993635026476829,-79.71317205108102
6.70422528,0.999333016387024,-79.8699992794193
6.707746304,0.9993440827692674,-80.02673854498964
6.71126784,0.9993959872833775,-80.18396447594438
6.714788864,0.9994855057060837,-80.3422185714229
6.718309888,0.9996072868202434,-80.50202257448653
6.721830912,0.9997537400433143,-80.66377088581065
6.725351936,0.9999157956830487,-80.8277951538858
6.728873472,1.0000836805339426,-80.99421120975605
6.732394496,1.0002468106552682,-81.16305088403779
6.73591552,1.0003953319534025,-81.33412903361896
6.739436544,1.0005201134437185,-81.50720854845082
6.742957568,1.0006134501731436,-81.6818834767723
6.746479104,1.0006696243497033,-81.85764753473993
6.750000128,1.000685078311342,-82.0339817873303
6.753521152,1.0006589508067183,-82.21025172285347
6.757042176,1.000592849008366,-82.38589161565498
6.7605632,1.0004906155466862,-82.56040708127978
6.764084736,1.0003586053728628,-82.73325779269737
6.76760576,1.0002049995604418,-82.90413890603814
6.771126784,1.0000391751619828,-83.07271250902258
6.774647808,0.9998714310811428,-83.238968593972
6.778168832,0.9997118274628729,-83.40292031288352
6.781690368,0.9995703423085874,-83.56471112391229
6.785211392,0.999455828657954,-83.7247067846103
6.788732416,0.9993751335730489,-83.8833550213361
6.79225344,0.9993333354861337,-84.04116573160665
6.795774464,0.9993330458784262,-84.19867468187525
6.799296,0.9993742017722927,-84.35653423720753
6.802817024,0.9994543371655048,-84.51529860902359
6.806338048,0.9995685588932148,-84.67550024660623
6.809859072,0.9997101051825831,-84.83752296942589
6.813380096,0.9998698339492593,-85.00175933854102
6.816901632,1.0000379938116242,-85.16838822240697
6.820422656,1.0002045252956626,-85.337421031636
6.82394368,1.0003588887191723,-85.5087963907209
6.827464704,1.0004917913806701,-85.68227972361956
6.830985728,1.0005951306291512,-85.85746971712764
6.834507264,1.0006622617920256,-86.03388250068335
6.838028288,1.0006891471312576,-86.21107148567886
6.841549312,1.0006742504457666,-86.38834834521187
6.845070336,1.0006183714604173,-86.56515992215665
6.84859136,1.0005248187166222,-86.74094871555442
6.852112896,1.0003995900956686,-86.91514905532917
6.85563392,1.000250149353248,-87.08748740285453
6.859154944,1.0000856858039446,-87.2576229855071
6.862675968,0.999916322891441,-87.42537577474239
6.866196992,0.9997524233787651,-87.59075691284343
6.869718528,0.999604290291798,-87.75395550325895
6.873239552,0.9994807425894182,-87.91520986775527
6.876760576,0.9993896713697168,-88.07499890179425
6.8802816,0.999336402040363,-88.23375770323962
6.883802624,0.9993246455027854,-88.39210493542268
6.88732416,0.9993547993073262,-88.55060386714678
6.890845184,0.999425044777002,-88.70982168646526
6.894366208,0.9995312659623244,-88.87039858842304
6.897887232,0.9996668140110383,-89.03270217235398
6.901408256,0.9998235043560197,-89.19711665586331
6.904929792,0.9999914067177902,-89.36392831999471
6.908450816,1.0001603944556274,-89.53316769132707
6.91197184,1.0003202430045413,-89.70477533386185
6.915492864,1.0004607256593947,-89.87857354847758
6.919013888,1.0005734869004994,-90.05420973956267
6.922535424,1.000651522042368,-90.23123957069076
6.926056448,1.0006899889320038,-90.40916461488025
6.929577472,1.000686778575861,-90.5873838915611
6.933098496,1.0006414354174926,-90.76528845997683
6.93661952,1.0005574180683645,-90.94225220611695
6.940141056,1.0004395370975971,-91.11781722946763
6.94366208,1.0002949151258185,-91.29158814183846
6.947183104,1.0001326355598568,-91.46320164213105
6.950704128,0.9999624946790089,-91.63243047011666
6.954225152,0.9997950983049704,-91.79929007099442
6.957746688,0.9996406802886301,-91.96385159889266
6.961267712,0.9995087988889962,-92.12639587153278
6.964788736,0.9994073660883348,-92.28731687272531
6.96830976,0.9993430042922739,-92.44708586319621
6.971830784,0.9993193788795048,-92.60623437096612
6.97535232,0.9993380867880935,-92.76540320304913
6.978873344,0.9993981916110721,-92.92512762840013
6.982394368,0.9994956494182189,-93.08601694676142
6.985915392,0.9996247201088139,-93.24859464779757
6.989436416,0.9997773573250797,-93.41319079386862
6.992957952,0.9999442033217009,-93.58013201951893
6.996478976,1.0001150369659446,-93.74950712806015
7.0,1.000279304226041,-93.9213126764282
7.003521024,1.0004270476408792,-94.09535642982084
7.007042048,1.000549074412924,-94.27137992081815
7.010563584,1.0006377615666382,-94.44896142623868
7.014084608,1.0006879104312625,-94.62756014526501
7.017605632,1.0006961979579678,-94.80661230741431
7.021126656,1.0006622650383474,-94.98550279638809
7.02464768,1.0005879833896445,-95.16363788174901
7.028169216,1.0004780540828757,-95.34051219174803
7.03169024,1.0003391224001421,-95.5156630476735
7.035211264,1.0001798008046225,-95.68867376848351
7.038732288,1.000009720657756,-95.85936991668392
7.042253312,0.9998394958127416,-96.02766566483118
7.045774848,0.9996794517884349,-96.1936073972956
7.049295872,0.9995395472380886,-96.3574704171752
7.052816896,0.9994283733932406,-96.51953008301261
7.05633792,0.9993526347634673,-96.6803086756097
7.059858944,0.9993173391120648,-96.84029517147017
7.06338048,0.9993243175685537,-97.00010104142603
7.066901504,0.9993735158670916,-97.16032566600639
7.070422528,0.9994616726265454,-97.32161257627688
7.073943552,0.9995834904005244,-97.48439672802849
7.077464576,0.999731400074477,-97.64916053180958
7.080986112,0.9998963518009768,-97.8161572424373
7.084507136,1.0000682667466805,-97.9856692172586
7.08802816,1.0002364173957903,-98.15757995887404
7.091549184,1.0003906781441643,-98.3318581610024
7.095070208,1.000521475975672,-98.50818435518576
7.098591744,1.0006208191464947,-98.68618537436502
7.102112768,1.000682341451882,-98.86538928896626
7.105633792,1.0007025557699434,-99.04520789163112
7.109154816,1.0006800323943867,-99.22501817131402
7.11267584,1.0006161904168793,-99.40424942023841
7.116197376,1.0005149762769,-99.5823689255691
7.1197184,1.000382515664455,-99.7587999018571
7.123239424,1.0002268714651859,-99.93325880681034
7.126760448,1.000057653779651,-100.10538835192763
7.130281472,0.9998853127535916,-100.27509315534833
7.133803008,0.9997203896149325,-100.44245429981254
7.137324032,0.999572958216127,-100.60756320008971
7.140845056,0.9994522923109522,-100.77076850086831
7.14436608,0.9993655621816817,-100.93254164628816
7.147887104,0.9993184329626624,-101.09339653214634
7.15140864,0.9993135780180205,-101.25386242885958
7.154929664,0.9993514259805614,-101.41462841295139
7.158450688,0.9994296909739067,-101.57624919365863
7.161971712,0.9995434650290258,-101.73924863119086
7.165492736,0.9996859612605657,-101.9041266908736
7.169014272,0.999848181113641,-102.07124015001135
7.172535296,1.0000203265685605,-102.24075174329269
7.17605632,1.0001917799214481,-102.4127339958231
7.179577344,1.0003520172191207,-102.58714429198558
7.183098368,1.0004910394616098,-102.76369490882949
7.186619904,1.0006005561339197,-102.94208860691482
7.190140928,1.000673646293814,-103.1218000025648
7.193661952,1.0007058309486443,-103.30232023709377
7.197182976,1.0006950896163507,-103.48298242209619
7.200704,1.0006421485406667,-103.6632398754023
7.204225536,1.000550213654637,-103.84247951684873
7.20774656,1.0004248298729883,-104.02023046642839
7.211267584,1.0002737433853959,-104.1959821907946
7.214788608,1.000106330418736,-104.36953795871932
7.218309632,0.9999325713498192,-104.5406456715013
7.221831168,0.9997633878899379,-104.70934274950393
7.225352192,0.9996090684022811,-104.87571935471007
7.228873216,0.9994792582835058,-105.04013804626071
7.23239424,0.9993818089926266,-105.20293847956346
7.235915264,0.9993228215544826,-105.36461713099925
7.2394368,0.9993058688314538,-105.52580092997331
7.242957824,0.9993321057867526,-105.68707573375423
7.246478848,0.9994000044297093,-105.84902420276492
7.249999872,0.9995051824950344,-106.01225548094322
7.253520896,0.9996413486495844,-106.17722459317801
7.257042432,0.9997999951123384,-106.3443632174816
7.260563456,0.9999716252435341,-106.51386301072993
7.26408448,1.000145463884286,-106.68589466011024
7.267605504,1.0003108732278432,-106.86035984868975
7.271126528,1.0004577595342203,-107.03705104097058
7.274648064,1.0005771750958792,-107.21572224375441
7.278169088,1.0006615284771825,-107.39588921981877
7.281690112,1.0007056794950384,-107.57699343180359
7.285211136,1.0007071111889663,-107.75841222386336
7.28873216,1.000665479734521,-107.93962378677598
7.292253696,1.0005834484108327,-108.11995097465179
7.29577472,1.0004659916968073,-108.29887983067813
7.299295744,1.000320149030774,-108.47598558176954
7.302816768,1.000155180185772,-108.65087783383635
7.306337792,0.9999809748934748,-108.82335266910907
7.309859328,0.9998082799942128,-108.99336908072128
7.313380352,0.9996478132989096,-109.16106170963396
7.316901376,0.9995093355590755,-109.32659246033138
7.3204224,0.9994013606288699,-109.49043122596481
7.323943424,0.9993305918640085,-109.65298017590122
7.32746496,0.9993014430734618,-109.81482448577542
7.330985984,0.9993157416887057,-109.97663031303229
7.334507008,0.999372559798247,-110.13892861901145
7.338028032,0.9994685545724117,-110.30234249740366
7.341549056,0.9995975960741503,-110.46742055170921
7.345070592,0.9997520389872013,-110.6345347041107
7.348591616,0.9999221526710338,-110.80401368621318
7.35211264,1.0000976385678397,-110.97597249561105
7.355633664,1.0002676786276619,-111.15046112191442
7.359154688,1.000421817886543,-111.32728762930185
7.362676224,1.0005505407269024,-111.50613034318404
7.366197248,1.000645949536677,-111.68661274554279
7.369718272,1.0007023093532303,-111.8682174332126
7.373239296,1.0007158661920559,-112.05033704739418
7.37676032,1.0006859830244084,-112.23236299862229
7.380281856,1.0006144176947755,-112.41373441429428
7.38380288,1.0005055991752767,-112.59378523419427
7.387323904,1.0003660588395036,-112.77211735844757
7.390844928,1.000204323270724,-112.94832884411571
7.394365952,1.000030482745873,-113.12214529261696
7.397887488,0.9998550682699463,-113.29349753310565
7.401408512,0.9996889897041011,-113.4624202870394
7.404929536,0.9995422820182375,-113.62915705178942
7.40845056,0.9994242214598613,-113.79399155532458
7.411971584,0.9993419486457866,-113.95741475881128
