freq,mag,phase
6.0,0.9992458952890027,94.30629539059387
6.002285568,0.9995681955162183,94.16328395603473
6.004571648,0.9999197046479997,94.01542709931488
6.006857216,1.0002762173643673,93.86242629975541
6.009142784,1.0006152544105198,93.70441977325964
6.011428352,1.0009153511014597,93.54180797643735
6.013714432,1.0011575981999419,93.37525253015902
6.016,1.0013268196849725,93.20579874705345
6.018285568,1.001412032396304,93.03452692133467
6.020571648,1.001407948143694,92.86265778384274
6.022857216,1.0013149080288883,92.69153004528656
6.025142784,1.0011386604707655,92.52235856670917
6.027428352,1.0008903810865182,92.35629893420614
6.029714432,1.0005853937077913,92.19428690225458
6.032,1.0002431710224666,92.03693487059688
6.034285568,0.9998851024160352,91.88474946596637
6.036571648,0.9995340649511872,91.73770647923224
6.038857216,0.9992120819192624,91.595574753959
6.041142784,0.9989396102605699,91.45782076552145
6.043428352,0.9987338591294779,91.3235772678242
6.045714432,0.9986081234336676,91.1917721034037
6.048,0.9985701729310955,91.06120397362422
6.050285568,0.9986226810410549,90.93051014235012
6.052571648,0.9987621479322802,90.79851381674723
6.054857216,0.9989798737768696,90.6638982934231
6.057142784,0.9992620734789395,90.52569441761895
6.059428352,0.9995909807303291,90.3830579076748
6.061714432,0.9999456234354265,90.23550171616338
6.064,1.0003035973780527,90.08278732328988
6.066285568,1.0006424408862424,89.92503486633343
6.068571648,1.0009405641186868,89.76268426691192
6.070857216,1.001179369634986,89.59649350826336
6.073142784,1.0013435451126915,89.42739506395192
6.075428352,1.0014227891782246,89.25652825457777
6.077714432,1.0014121147034234,89.08521286592962
6.08,1.0013121182599962,88.91470242401921
6.082285568,1.0011289584905354,88.74629166189735
6.084571648,1.0008743517411547,88.58104580644725
6.086857216,1.000564275658761,88.41991479461565
6.089142784,1.000218030410115,88.26355965565293
6.091428352,0.9998577819007731,88.11235678028486
6.093714432,0.9995059782280178,87.96635805903625
6.096,0.9991850916307238,87.82525532065706
6.098285568,0.9989155341913577,87.68848283746422
6.100571648,0.998714248852278,87.55516934476599
6.102857216,0.998594037745844,87.42422414173039
6.105142784,0.9985627542980717,87.29441693827859
6.107428352,0.998622139647567,87.16443511160399
6.109714432,0.9987687562299529,87.03298688014318
6.112,0.9989931732085557,86.89883900002962
6.114285568,0.9992812525208796,86.76101878559518
6.116571648,0.9996147418013569,86.61865618602393
6.118857216,0.9999725213504395,86.47130974325533
6.121142784,1.0003319809404525,86.31877612712546
6.123428352,1.0006704652751108,86.16123751720194
6.125714432,1.0009664888201255,85.99906896544017
6.128,1.0012014236770272,85.83311317723437
6.130285568,1.001360454260378,85.66431584870908
6.132571648,1.0014334098743212,85.49383502636165
6.134857216,1.001415823904433,85.3230128060264
6.137142784,1.0013086555598898,85.1530892849203
6.139428352,1.0011186236816765,84.98532036164659
6.141714432,1.0008577008111783,84.82085085732277
6.144,1.000542166969267,84.66055263226684
6.146285568,1.0001920067800676,84.50511323279432
6.148571648,0.9998293722751351,84.35488528812448
6.150857216,0.9994772139298252,84.20982882122436
6.153142784,0.999157680083807,84.06971598711584
6.155428352,0.9988911163139037,83.93388165013523
6.157714432,0.9986944184388948,83.80143915265455
6.16,0.9985801278379858,83.67129906341106
6.162285568,0.9985554948902305,83.54220150861366
6.164571648,0.9986223112781701,83.41281075032293
6.166857216,0.9987760617078495,83.2818110755925
6.169142784,0.9990072774911217,83.14808865208572
6.171428352,0.9993012542839445,83.0105363345374
6.173714432,0.9996393668690317,82.8683880887006
6.176,1.0000002617712425,82.72121851519857
6.178285568,1.0003611020783232,82.56881151403665
6.180571648,1.0006991065023794,82.41132981766653
6.182857216,1.0009928439752713,82.2493119471977
6.185142784,1.0012237800772728,82.08351444694857
6.187428352,1.0013774110852982,81.91493968448665
6.189714432,1.0014438996843205,81.74479682190001
6.192,1.0014191630628047,81.57436448524919
6.194285568,1.0013045322328902,81.40493454827394
6.196571648,1.0011074474017698,81.23780515763782
6.198857216,1.0008399779074406,81.07405860772774
6.201142784,1.0005191791668562,80.91454751231235
6.203428352,1.0001652228965014,80.75996436976853
6.205714432,0.9998003327232861,80.61062234222166
6.208,0.9994476763691361,80.46649470695391
6.210285568,0.9991296436099377,80.3272906635535
6.212571648,0.9988663056944838,80.19232032827348
6.214857216,0.998674481050017,80.06070390458453
6.217142784,0.9985662912159983,79.93129764391588
6.219428352,0.9985486807742898,79.80280024763523
6.221714432,0.9986228472027794,79.67393793085098
6.224,0.9987840912170698,79.54339333217094
6.226285568,0.9990222265693501,79.40996002641812
6.228571648,0.9993222007009486,79.27262291964018
6.230857216,0.9996649183558498,79.13059035268233
6.233142784,1.0000289454407616,78.98347519157514
6.235428352,1.000391015266628,78.83112071577673
6.237714432,1.000728222207223,78.67368602573298
6.24,1.0010195444167962,78.51172499310499
6.242285568,1.0012462023687219,78.34600716940221
6.244571648,1.0013942043522006,78.17757113662802
6.246857216,1.0014540404592334,78.00769088667637
6.249142784,1.001421886612198,77.83762307028785
6.251428352,1.0012998107694375,77.66865485421923
6.253714432,1.00109528776125,77.50209186262951
6.256,1.0008214079639444,77.33896220505582
6.258285568,1.000495142901331,77.18021651233522
6.260571648,1.000137281585597,77.0264353725984
6.262857216,0.9997702606046077,76.87793760114188
6.265142784,0.9994174446840121,76.73465877926611
6.267428352,0.9991010659747843,76.59631309770376
6.269714432,0.9988412487002328,76.46216687607166
6.272,0.9986545046252181,76.33129518743485
6.274285568,0.9985526749065314,76.20253209331443
6.276571648,0.9985422732643741,76.07461479169086
6.278857216,0.9986241454956467,75.94620593550175
6.281142784,0.9987929840714885,75.81599056665162
6.283428352,0.9990381814402376,75.68275796984979
6.285714432,0.9993441354007432,75.54554726360126
6.288,0.9996916084188195,75.40359321260559
6.290285568,1.0000585026458608,75.2564560223015
6.292571648,1.0004216769449255,75.10403757875052
6.294857216,1.0007582192835212,74.94655454833762
6.297142784,1.001046701032747,74.78458143699044
6.299428352,1.0012690582922947,74.61888339710475
6.301714432,1.001411150901084,74.45058398577072
6.304,1.0014639577027316,74.28087936192384
6.306285568,1.001424196225964,74.1110752468862
6.308571648,1.001294252491086,73.9425018584741
6.310857216,1.0010822994597601,73.77642256683806
6.313142784,1.0008017261134758,73.61390167194563
6.315428352,1.0004700675744067,73.45585921092626
6.317714432,1.0001082883531573,73.30283986444506
6.32,0.9997391610207217,73.15513975541916
6.322285568,0.9993862394366302,73.01268358390729
6.324571648,0.9990717158261471,72.87513599318447
6.326857216,0.99881564393607,72.74174111379976
6.329142784,0.9986341633190009,72.61153382752246
6.331428352,0.9985390744564528,72.48338597740286
6.333714432,0.9985362103623597,72.35595222819991
6.336,0.9986259487901651,72.22791829966346
6.338285568,0.9988025678375447,72.09795622794141
6.340571648,0.9990549406276067,71.96486551475597
6.342857216,0.9993671423912082,71.8277023131409
6.345142784,0.9997192735714813,71.68572394347527
6.347428352,1.0000890380961385,71.53848628724822
6.349714432,1.000453271199313,71.38595577608243
6.352,1.0007887865749876,71.22834845310312
6.354285568,1.0010744266695768,71.06623835482624
6.356571648,1.001291995710326,70.90050233674043
6.358857216,1.0014278831890109,70.73222782749251
6.361142784,1.0014735407349404,70.5626391845762
6.363428352,1.0014259167047226,70.3930564398919
6.365714432,1.001288029661627,70.22483564758036
6.368,1.001068460428252,70.05921432041762
6.370285568,1.000781041545695,69.8972424754934
6.372571648,1.0004438729453162,69.73983067611819
6.374857216,1.0000782352715907,69.5875067147131
6.377142784,0.9997072642695418,69.44053748784314
6.379428352,0.9993544078147708,69.29888299205183
6.381714432,0.9990419618518619,69.1620607094274
6.384,0.9987897864005728,69.02935818756703
6.386285568,0.9986140278469642,68.89977930086712
6.388571648,0.9985257226737901,68.77214138870626
6.390857216,0.9985307587018721,68.64514799923501
6.393142784,0.9986285650569722,68.51739332912412
6.395428352,0.998813211120247,68.38761181656342
6.397714432,0.9990730179976951,68.25459913073003
6.4,0.9993913369817682,68.11740921798233
6.402285568,0.9997482372411662,67.97530594798927
6.404571648,1.0001209425905069,67.82790181790385
6.406857216,1.0004859882683383,67.67514017222
6.409142784,1.0008203162156672,67.5173094590395
6.411428352,1.001102766055753,67.3550202951218
6.413714432,1.0013153572194302,67.18917761909425
6.416,1.0014448539558676,67.02085608589094
6.418285568,1.0014829026292738,66.85132196074747
6.420571648,1.001427160299989,66.68191510801127
6.422857216,1.001280960908885,66.51399369141862
6.425142784,1.0010535607038906,66.34873791565137
6.427428352,1.0007592890099821,66.18727285384875
6.429714432,1.000416588349648,66.03043870476527
6.432,1.0000471596983767,65.87877133126338
6.434285568,0.9996742156125078,65.73251995044303
6.436571648,0.999321522331544,65.59152037027496
6.438857216,0.9990113316074508,65.45539053637863
6.441142784,0.9987634634326763,65.32332027212716
6.443428352,0.9985935428544168,65.19431350590241
6.445714432,0.9985125886407485,65.06713404105197
6.448,0.9985255821807326,64.94049960320342
6.450285568,0.9986318588141722,64.81298360877261
6.452571648,0.9988247906993319,64.68329467730864
6.454857216,0.9990920816748701,64.55025959586798
6.457142784,0.9994167266995037,64.41290925931507
6.459428352,0.9997783918212451,64.2706221891491
6.461714432,1.0001539400936772,64.12294954167983
6.464,1.000519728891075,63.969914219531496
6.466285568,1.0008526245373854,63.811800381224636
6.468571648,1.0011315817748747,63.6492617000358
6.470857216,1.0013390080179814,63.48321487207953
6.473142784,1.00146168699997,63.314781085229306
6.475428352,1.0014918398942245,63.14523082104936
6.477714432,1.0014276370928947,62.97590423157226
6.48,1.0012729789827104,62.80820972652835
6.482285568,1.0010374262781478,62.64330970986309
6.484571648,1.000736098248733,62.48230749334584
6.486857216,1.0003877585879675,62.32600113124713
6.489142784,1.0000144870392902,62.17495996671557
6.491428352,0.9996397928359902,62.029350555714096
6.493714432,0.9992874767942471,61.88901036804044
6.496,0.9989798734856153,61.75350425956515
6.498285568,0.9987365629855766,61.621991027285155
6.500571648,0.9985729074578023,61.49349756347208
6.502857216,0.9984994938399961,61.366705136992735
6.505142784,0.99852101890619,61.24034682587648
6.507428352,0.998636032448928,61.11298230945101
6.509714432,0.9988375232084283,60.98331187371612
6.512,0.9991124696256751,60.850175686122114
6.514285568,0.9994436976411203,60.71263793459499
6.516571648,0.9998100870049039,60.57002865916228
6.518857216,1.0001884657594624,60.42202062864357
6.521142784,1.0005548632501924,60.26858288811077
6.523428352,1.0008861596825327,60.1101017047731
6.525714432,1.0011613552697254,59.947229784310885
6.528,1.0013631057104109,59.780891199435175
6.530285568,1.001478648067736,59.61228014863334
6.532571648,1.0015005269182395,59.44265280067087
6.534857216,1.0014274236434972,59.273397515518894
6.537142784,1.0012638295471816,59.105836686158945
6.539428352,1.0010200563211975,58.941240496864005
6.541714432,1.000711395552973,58.780631121969
6.544,1.0003572891306434,58.62481924538268
6.546285568,0.9999801577680026,58.474339272580195
6.548571648,0.9996037689404235,58.32930961723022
6.550857216,0.9992520253406526,58.18959827351417
6.553142784,0.998947203588867,58.05467163875595
6.555428352,0.9987087224102268,57.92371816055908
6.557714432,0.9985518133095905,57.795636226619294
6.56,0.9984864273926833,57.66919227979043
6.562285568,0.9985167686282638,57.54300445246682
6.564571648,0.9986410156625017,57.415719666535125
6.566857216,0.9988514075235578,57.285977709343804
6.569142784,0.9991343512650728,57.15266433769634
6.571428352,0.9994722839464795,57.0148276123406
6.573714432,0.9998434767079664,56.871815152182116
6.576,1.0002245877053206,56.723359772645665
6.578285568,1.0005914980705395,56.5694597429685
6.580571648,1.000920974372662,56.41052383227981
6.582857216,1.0011921045504115,56.24721981742404
6.585142784,1.001387757818858,56.0805219609374
6.587428352,1.0014956307752179,55.9116176870268
6.589714432,1.0015087516876615,55.74186415435691
6.592,1.001426234599143,55.572593916767936
6.594285568,1.001253314393824,55.405130916321085
6.596571648,1.0010008488633593,55.240772703777026
6.598857216,1.0006846221253503,55.080538589269715
6.601142784,1.0003245765281061,54.92518947426755
6.603428352,0.9999435442886171,54.77523873098993
6.605714432,0.9995655805051478,54.6307567534808
6.608,0.9992146491842441,54.491630878098555
6.610285568,0.9989130384586241,54.35723604699355
6.612571648,0.9986799481332849,54.22675710253027
6.614857216,0.9985301551461616,54.099049160721634
6.617142784,0.9984734024290709,53.97287330366614
6.619428352,0.9985132286370392,53.846836101085344
6.621714432,0.9986472085416201,53.71951461687083
6.624,0.9988669853580536,53.58962482903566
6.626285568,0.9991583718566414,53.456032279660405
6.628571648,0.9995031693585342,53.31778434927195
6.630857216,0.9998793833460071,53.17428808369737
6.633142784,1.0002632550087194,53.02527692545574
6.635428352,1.0006304688480723,52.870807233024706
6.637714432,1.0009577050628191,52.711296853019334
6.64,1.0012242848726411,52.54746715874996
6.642285568,1.001413353164899,52.38032252146004
6.644571648,1.0015128956821595,52.2110941412531
6.646857216,1.0015166085543787,52.041109229309654
6.649142784,1.0014240533288956,51.871744694833225
6.651428352,1.0012413079189761,51.70438533432365
6.653714432,1.0009794768308655,51.54021460397228
6.656,1.0006552371261006,51.38027220255604
6.658285568,1.0002890575723775,51.22534380453443
6.660571648,0.9999040033604651,51.07589568644484
6.662857216,0.9995245102499821,50.93198337965898
6.665142784,0.99917460055913,50.793361166767184
6.667428352,0.9988766552591456,50.65946788237299
6.669714432,0.9986494272724751,50.529416258818195
6.672,0.99850757534582,50.402058143289025
6.674285568,0.998460181524707,50.27608712293766
6.676571648,0.9985102850900837,50.15010142135018
6.678857216,0.9986548176114083,50.02268665210188
6.681142784,0.9988845724441002,49.892558955471806
6.683428352,0.9991851114974921,49.75855743644142
6.685714432,0.999537196661199,49.61980614126902
6.688,0.9999186887045427,49.47571101086254
6.690285568,1.0003053550362027,49.325998726389976
6.692571648,1.0006725985512188,49.17082918807581
6.694857216,1.000997229199593,49.01063318231495
6.697142784,1.0012586422120613,48.84616994257116
6.699428352,1.0014403643692176,48.67848346965762
6.701714432,1.001530722382319,48.508820947029584
6.704,1.0015240622360648,48.338529256210876
6.706285568,1.001420560094311,48.16903038923693
6.708571648,1.0012268543412601,48.00166408783345
6.710857216,1.0009549406917868,47.83765424683652
6.713142784,1.00062209776829,47.678024990093675
6.715428352,1.0002492649752905,47.523497955194834
6.717714432,0.9998600437303694,47.37451125576472
6.72,0.9994790972715457,47.23111246426415
6.722285568,0.9991306906250619,47.09303797971541
6.724571648,0.9988367720421041,46.959637384487515
6.726857216,0.9986163522531754,46.829987761857694
6.729142784,0.9984834043092946,46.70290200516024
6.731428352,0.9984465149347235,46.57707875040222
6.733714432,0.9985080916122747,46.45108405083984
6.736,0.9986643113284494,46.323477027808565
6.738285568,0.9989052340073916,46.19298840859291
6.740571648,0.9992156478803512,46.0584704485693
6.742857216,0.9995758658491826,45.91907166354777
6.745142784,0.9999630187376879,45.7742077324585
6.747428352,1.0003525499365897,45.62369202211419
6.749714432,1.0007196366411382,45.467659143419546
6.752,1.001041140410852,45.30661520418825
6.754285568,1.0012964751039901,45.14136251438417
6.756571648,1.0014695438696637,44.97301039602138
6.758857216,1.0015494171597459,44.80279568122942
6.761142784,1.0015307896230035,44.63213140213635
6.763428352,1.001414764966705,44.46239385824613
6.765714432,1.0012085567043523,44.294994411025954
6.768,1.0009253051017233,44.13111556634031
6.770285568,1.0005826544829095,43.971770387410146
6.772571648,1.0002024349936198,43.817675165899516
6.774857216,0.9998085872718745,43.6691714314553
6.777142784,0.9994262055293054,43.52631603126063
6.779428352,0.9990796250948231,43.38878981584585
6.781714432,0.9987909533604761,43.25587067480162
6.784,0.9985785615302211,43.126618720959584
6.786285568,0.9984561829344172,42.999815775786466
6.788571648,0.9984317810552572,42.87408595088309
6.790857216,0.9985068703218535,42.747995433127976
6.793142784,0.998676861277963,42.62011101909962
6.795428352,0.9989309438832176,42.48910123689499
6.797714432,0.9992529998539178,42.35389762664148
6.8,0.9996225771240607,42.21363826898049
6.802285568,1.0000162093342366,42.067805791279916
6.804571648,1.0004088023932751,41.91624975431161
6.806857216,1.000775409100621,41.75914342238537
6.809142784,1.0010927927459892,41.59702611306908
6.811428352,1.0013405619662947,41.43079518508944
6.813714432,1.0015030156009885,41.26155521734498
6.816,1.001569815669866,41.09063937858483
6.818285568,1.0015364514520282,40.91945743604378
6.820571648,1.001404967759456,40.74944244665333
6.822857216,1.001183527795939,40.5819398216281
6.825142784,1.000886198255867,40.418207704368
6.827428352,1.0005315967449988,40.25915435060533
6.829714432,1.0001422148946892,40.10552162544245
6.832,0.9997428642094699,39.957612197354216
6.834285568,0.9993589927817854,39.815406083181564
6.836571648,0.9990149833304032,39.67850587807021
6.838857216,0.998733045031284,39.54615914993694
6.841142784,0.9985311727165225,39.41737259930166
6.843428352,0.9984225467170106,39.29083713372823
6.845714432,0.9984142538428423,39.1651726102779
6.848,0.9985067869147689,39.03887824241717
6.850285568,0.9986946801821971,38.9105475803071
6.852571648,0.9989657602316996,38.7788296768088
6.854857216,0.9993029417457153,38.642658222563256
6.857142784,0.9996846587499509,38.5012218997903
6.859428352,1.0000865851490586,38.35403277218335
6.861714432,1.0004829930498198,38.20101484203091
6.864,1.000848532096625,38.04239953212347
6.866285568,1.0011598512042017,37.878821189463395
6.868571648,1.0013969892208017,37.71121614413221
6.870857216,1.0015445388426407,37.54077821629894
6.873142784,1.0015928710701014,37.36884136557085
6.875428352,1.0015388300050438,37.19691333543823
6.877714432,1.0013855645878422,37.026452889501485
6.88,1.001142460979303,36.85880784294592
6.882285568,1.0008249658885158,36.69522210157855
6.884571648,1.0004532537974773,36.53663181846975
6.886857216,1.0000508305949514,36.383650769303635
6.889142784,0.9996434826153046,36.23655164389447
6.891428352,0.9992574474405718,36.0952485333248
6.893714432,0.998917523125562,35.959267268862405
6.896,0.9986458165183338,35.827759538035515
6.898285568,0.9984599927494109,35.699612623554295
6.900571648,0.9983724847457104,35.57346772929386
6.902857216,0.9983890028034218,35.44785944770707
6.905142784,0.9985090060034457,35.321231946992256
6.907428352,0.9987248775571446,35.192117118279334
6.909714432,0.9990230311308229,35.059228345037084
6.912,0.9993843658659793,34.92145457988162
6.914285568,0.9997856446205808,34.778037660127254
6.916571648,1.0002009472190032,34.628549460366585
6.918857216,1.000603405552515,34.47301994461915
6.921142784,1.0009667595786045,34.31180698781738
6.923428352,1.0012672247627,34.14561373203931
6.925714432,1.0014848678816948,33.97552269987422
6.928,1.0016051746902332,33.80283552777782
6.930285568,1.00161962361212,33.62902895184605
6.932571648,1.0015265281973058,33.45567826476848
6.934857216,1.0013312773145968,33.284295778892506
6.937142784,1.0010458512491727,33.11630039762508
6.939428352,1.0006881182017242,32.95293383493168
6.941714432,1.0002807184975542,32.79509796853422
6.944,0.9998502309533587,32.643331082351125
6.946285568,0.9994245520278086,32.49783133085582
6.948571648,0.999031959437097,32.35836296552357
