freq,mag,phase
6.0,1.0000410217039801,-89.15485444874884
6.00590848,1.0000438730103502,-89.42527719600169
6.01181696,1.000043546324475,-89.69572705227749
6.01772544,1.000040824495314,-89.9661886469447
6.02363392,1.0000357064105383,-90.23660313053206
6.029541888,1.0000286550067252,-90.50695957090782
6.035450368,1.0000199339428566,-90.77717890709553
6.041358848,1.0000101169474866,-91.04730334108602
6.047267328,0.9999996811846604,-91.31724960279074
6.053175808,0.999989224976697,-91.58711910580882
6.059084288,0.9999793419529266,-91.85684101443306
6.064992768,0.9999707128007469,-92.12642285153109
6.070901248,0.9999637145611793,-92.39594294092669
6.076809216,0.9999586516092124,-92.66535849755002
6.082717696,0.9999561028147418,-92.9347490915071
6.088626176,0.9999560011694343,-93.20411713432269
6.094534656,0.9999584041249178,-93.47352562193873
6.100443136,0.9999632682935029,-93.7429311968494
6.106351616,0.9999701647076332,-94.01247542417686
6.112260096,0.9999787348836388,-94.28213582966926
6.118168576,0.9999885787848943,-94.55195195269924
6.124077056,0.9999993045536879,-94.821879402432
6.129985024,1.0000098539948379,-95.0919555616443
6.135893504,1.0000200668870383,-95.36221163105462
6.141801984,1.000029069469009,-95.63260673763303
6.147710464,1.0000364606074292,-95.90310496597544
6.153618944,1.000041876385285,-96.17369716986776
6.159527424,1.0000448324015785,-96.44437622790139
6.165435904,1.0000453094674842,-96.71510059246647
6.171344384,1.0000432240279296,-96.9858054481945
6.177252352,1.0000387557683614,-97.25644637315686
6.183160832,1.0000320091656043,-97.5270571367862
6.189069312,1.000023411723965,-97.7976008564497
6.194977792,1.0000136597747011,-98.06795942509882
6.200886272,1.0000029180179808,-98.33819844912578
6.206794752,0.9999920942386793,-98.60829158039763
6.212703232,0.9999816727776412,-98.87828085518846
6.218611712,0.9999723199594935,-99.14816037671957
6.224520192,0.999964530902941,-99.41790694511754
6.23042816,0.9999587629958536,-99.68752741957309
6.23633664,0.9999553758516374,-99.95711410597457
6.24224512,0.9999545020909767,-100.2266964914244
6.2481536,0.9999562388056884,-100.49630873434664
6.25406208,0.9999604714685201,-100.7659177836179
6.25997056,0.9999669915474017,-101.03564474539743
6.26587904,0.9999754783817715,-101.30548033491365
6.27178752,0.9999853159649013,-101.57545304615383
6.277695488,0.9999960727017798,-101.84557336912098
6.283603968,1.0000071567113205,-102.11584118931926
6.289512448,1.0000178209635766,-102.3862485102268
6.295420928,1.0000275139500385,-102.65682323525962
6.301329408,1.0000356823693837,-102.92756073440059
6.307237888,1.000041911843616,-103.19837180098807
6.313146368,1.0000457259422593,-103.46924803235761
6.319054848,1.000047040403946,-103.7402023773457
6.324963328,1.0000456052950504,-104.0111526334701
6.330871296,1.0000415833055327,-104.28206067284673
6.336779776,1.000035386603201,-104.55290544995785
6.342688256,1.0000270428880953,-104.82367736041378
6.348596736,1.0000171694711297,-105.09433548153419
6.354505216,1.0000062702065209,-105.3648433147148
6.360413696,0.9999950656160952,-105.63524877993086
6.366322176,0.9999842440126647,-105.90545239959758
6.372230656,0.9999740968053307,-106.17553955756507
6.378138624,0.9999656411123142,-106.44550158932617
6.384047104,0.9999589775633037,-106.7153800901059
6.389955584,0.9999547649618571,-106.9851784277087
6.395864064,0.9999530781931355,-107.25495257001795
6.401772544,0.9999540642235141,-107.52473413800654
6.407681024,0.999957807389291,-107.79454158202354
6.413589504,0.9999638670326506,-108.06442114459115
6.419497984,0.9999721092081367,-108.33443739256602
6.425405952,0.9999818500115011,-108.60454714052354
6.431314432,0.9999928389980219,-108.87481468474863
6.437222912,1.0000041666927304,-109.1452548601923
6.443131392,1.0000153316633607,-109.41587716893589
6.449039872,1.000025708310383,-109.68663080742165
6.454948352,1.0000347452019445,-109.95750010953182
6.460856832,1.0000417159708377,-110.22852273134866
6.466765312,1.0000464345542048,-110.4996328424136
6.472673792,1.0000485117401434,-110.77077607089804
6.47858176,1.000047824231602,-111.04195989877044
6.48449024,1.000044557865592,-111.31313375421239
6.49039872,1.0000386707597118,-111.58424428922353
6.4963072,1.0000306448273026,-111.85523309827255
6.50221568,1.0000208750792958,-112.12614970833906
6.50812416,1.0000099010243397,-112.39689979600746
6.51403264,0.9999983749201918,-112.66755892853122
6.51994112,0.9999869243917062,-112.9380288358741
6.525849088,0.9999762579120196,-113.20832109466141
6.531757568,0.9999669561464279,-113.47851491518723
6.537666048,0.9999595512549311,-113.74861983419034
6.543574528,0.9999544628228048,-114.01862157419767
6.549483008,0.9999519402641854,-114.28860895980768
6.555391488,0.9999521539365668,-114.55854193703868
6.561299968,0.9999552131928804,-114.82852076607719
6.567208448,0.9999607302945902,-115.09854854492136
6.573116928,0.999968632076569,-115.36868263905026
6.579024896,0.9999782730066215,-115.6389967493033
6.584933376,0.9999893287465225,-115.9094127365296
6.590841856,1.000001018983557,-116.17999624404071
6.596750336,1.000012720204739,-116.45075269209572
6.602658816,1.0000237165267545,-116.72167752239719
6.608567296,1.000033388392234,-116.99270278972239
6.614475776,1.0000411683494634,-117.26392614898396
6.620384256,1.000046829630837,-117.53522868495767
6.626292224,1.0000497432252857,-117.8065915062092
6.632200704,1.00004996030587,-118.07798315555917
6.638109184,1.000047216035037,-118.34937573077178
6.644017664,1.0000419203882824,-118.62070659374174
6.649926144,1.0000342566393603,-118.89196205172743
6.655834624,1.0000246048397383,-119.1631139194416
6.661743104,1.0000136250471519,-119.43411440525982
6.667651584,1.000001812070856,-119.70498275552235
6.673560064,0.9999899276359796,-119.97566791723412
6.679468032,0.9999786169359351,-120.24624385802623
6.685376512,0.9999686588111284,-120.51665325643665
6.691284992,0.9999603106209215,-120.78695645260356
6.697193472,0.9999543225035021,-121.05713934982367
6.703101952,0.9999509703134092,-121.32728735766807
6.709010432,0.9999504253830108,-121.59738197623439
6.714918912,0.9999526627111016,-121.86756812312154
6.720827392,0.9999577391379194,-122.13774346626539
6.72673536,0.9999652397459218,-122.40799550593358
6.73264384,0.9999746846011212,-122.6784480869048
6.73855232,0.9999857224601933,-122.94898218848047
6.7444608,0.9999975818371462,-123.21971393562848
6.75036928,1.0000097348971038,-123.49064193279821
6.75627776,1.0000212873055836,-123.76167258779796
6.76218624,1.0000317451914758,-124.03289028515775
6.76809472,1.00004044000129,-124.30427209728022
6.7740032,1.0000468661035677,-124.57575591553596
6.779911168,1.000050773422743,-124.84731493948759
6.785819648,1.0000517597105683,-125.11889917558183
6.791728128,1.0000498055179767,-125.39049724981292
6.797636608,1.000045093006633,-125.66205570839762
6.803545088,1.0000378906783822,-125.9335291982744
6.809453568,1.0000284476894654,-126.20488914331406
6.815362048,1.0000174510568232,-126.47614715935572
6.821270528,1.0000055347779646,-126.74721847134919
6.827178496,0.9999932275942953,-127.01817061106364
6.833086976,0.9999813491775883,-127.28893857043383
6.838995456,0.9999705007042297,-127.5595426422986
6.844903936,0.9999613987358399,-127.83004947678235
6.850812416,0.9999545084967548,-128.10043303003664
6.856720896,0.9999502611188905,-128.3707419433358
6.862629376,0.999948805660108,-128.6410249030489
6.868537856,0.9999503070633261,-128.9113304232258
6.874446336,0.9999547799933438,-129.18165731462116
6.880354304,0.9999616753115154,-129.4520618971532
6.886262784,0.9999709808154091,-129.72262080304105
6.892171264,0.9999820226501326,-129.99327875422722
6.898079744,0.9999940608681407,-130.26413123375204
6.903988224,1.0000065318273454,-130.53513711493463
6.909896704,1.000018683430693,-130.80635929331814
6.915805184,1.0000298613463783,-131.07772625531874
6.921713664,1.0000394462048414,-131.3492279416567
6.927621632,1.0000468147240142,-131.62085498772578
6.933530112,1.000051499051236,-131.89260889530766
6.939438592,1.000053383717302,-132.16437664668967
6.945347072,1.0000522684631248,-132.43615885991014
6.951255552,1.0000482623218934,-132.70793533420147
6.957164032,1.000041540044776,-132.97963516044928
6.963072512,1.000032399935609,-133.25122615252732
6.968980992,1.0000214614856,-133.52268594296336
6.974889472,1.0000093359418876,-133.79399147570626
6.98079744,0.9999966967044511,-134.06516738178362
6.98670592,0.9999842470972007,-134.33612646380516
6.9926144,0.9999727239787448,-134.60695947594328
6.99852288,0.999962772359001,-134.8776186796689
7.00443136,0.9999549433677892,-135.1482005314167
7.01033984,0.9999497599311553,-135.41866323640346
7.01624832,0.9999473429894832,-135.68912409274103
7.0221568,0.9999480568378437,-135.95953581123217
7.028064768,0.9999518023025945,-136.2300058546632
7.033973248,0.9999583328662304,-136.50051885001545
7.039881728,0.999967214449572,-136.77119049021607
7.045790208,0.9999781324144801,-137.04199661431753
7.051698688,0.9999902454577849,-137.31295571018694
7.057607168,1.0000029920411555,-137.58405989472462
7.063515648,1.0000157423347824,-137.85537221788823
7.069424128,1.0000276267050507,-138.12686050683956
7.075332096,1.0000380022976412,-138.39851936499662
7.081240576,1.00004634358937,-138.67030012619728
7.087149056,1.0000520313954435,-138.94219617549055
7.093057536,1.0000548037583978,-139.21412016883627
7.098966016,1.000054559296156,-139.48609320906317
7.104874496,1.0000512273453628,-139.75806612716826
7.110782976,1.000045065976454,-140.02993961422436
7.116691456,1.000036281292412,-140.30175968577166
7.122599936,1.0000255274859688,-140.5734289712398
7.128507904,1.0000132995376887,-140.84494479004834
7.134416384,1.0000004260235718,-141.1163018439724
7.140324864,0.9999874351638935,-141.38749339464434
7.146233344,0.9999752535601739,-141.65852158192732
7.152141824,0.9999644325944669,-141.9293706718706
7.158050304,0.9999557130718275,-142.20009349083756
7.163958784,0.9999494822684771,-142.47074726028194
7.169867264,0.9999461809442108,-142.74129588130685
7.175775232,0.9999460176915734,-143.01185575019804
7.181683712,0.999948899361885,-143.28240919159228
7.187592192,0.9999548153242821,-143.55306974525936
7.193500672,0.9999633283149033,-143.82384266276378
7.199409152,0.9999740676368447,-144.09471107560756
7.205317632,0.9999862457511308,-144.36573829015651
7.211226112,0.9999993514665324,-144.6369737388939
7.217134592,1.0000125165520384,-144.90837310424325
7.223043072,1.0000250919498133,-145.17998141055335
7.22895104,1.0000362692337845,-145.45175047933867
7.23485952,1.0000455325155344,-145.7236616418124
7.240768,1.0000521947607564,-145.99568634547518
7.24667648,1.0000559225287609,-146.26779019439658
7.25258496,1.000056633909669,-146.5399286959805
7.25849344,1.0000540663243127,-146.81205943824432
7.26440192,1.0000485073673822,-147.0841531252684
7.2703104,1.0000402464872922,-147.35611571839337
7.276218368,1.0000297059972487,-147.628016541556
7.282126848,1.000017468532734,-147.89973187300052
7.288035328,1.0000042338050372,-148.17127162126366
7.293943808,0.9999907940476513,-148.44265609078812
7.299852288,0.9999779534231987,-148.71384496192553
7.305760768,0.9999663377084781,-148.9848590980171
7.311669248,0.9999566343715455,-149.2557801465649
7.317577728,0.999949527571829,-149.52655721146826
7.323486208,0.9999452531083753,-149.79726257086278
7.329394176,0.9999441315178745,-150.06793477349777
7.335302656,0.9999462516944084,-150.33860207620498
7.341211136,0.9999514075985223,-150.60935141292487
7.347119616,0.9999594667226537,-150.8801951343174
7.353028096,0.9999699479322616,-151.15115410869896
7.358936576,0.9999820966822458,-151.42229349024205
7.364845056,0.999995436366056,-151.69357274702955
7.370753536,1.0000090295089357,-151.96508720529184
7.376661504,1.0000222227944933,-152.2367517400282
7.382569984,1.0000342542663039,-152.5086239531228
7.388478464,1.0000443519088582,-152.78063856087653
7.394386944,1.0000520736733516,-153.05279696095485
7.400295424,1.0000568462684927,-153.3250323158726
7.406203904,1.000058435031835,-153.59731350510796
7.412112384,1.0000567404836014,-153.8696080864741
7.418020864,1.0000519406916821,-154.1418652023227
7.423929344,1.000044157278131,-154.4140384243903
7.429837312,1.0000339549817419,-154.68609741527723
7.435745792,1.0000217760090198,-154.95800068590825
7.441654272,1.0000083685691559,-155.2297316497184
7.447562752,0.9999945356988952,-155.50130638016483
7.453471232,0.9999810429334444,-155.77266219568983
7.459379712,0.9999686831842827,-156.04386386360557
7.465288192,0.9999580209140198,-156.31488881299413
7.471196672,0.9999498484201217,-156.5858201751242
7.47710464,0.9999446273627112,-156.85664043921435
7.48301312,0.9999423990166035,-157.1274142350735
7.4889216,0.9999436591220539,-157.39819981880171
7.49483008,0.9999481550855478,-157.66900914688563
7.50073856,0.9999556421862218,-157.9399448247414
7.50664704,0.9999657428991983,-158.21094958642976
7.51255552,0.9999778532099964,-158.48212710449158
7.518464,0.9999912689159782,-158.7535072606303
7.52437248,1.000005313648667,-159.02506077024609
7.530280448,1.0000190679915253,-159.29682343062913
7.536188928,1.0000318375705892,-159.56876008713866
7.542097408,1.0000429080731206,-159.84088713832588
7.548005888,1.0000516333096494,-160.1131214142152
7.553914368,1.0000574884585214,-160.38548867117834
7.559822848,1.000060056313169,-160.65792678182618
7.565731328,1.0000592911234343,-160.93034032813125
7.571639808,1.0000552034579049,-161.2027673573086
7.577547776,1.0000480365835287,-161.47508987581227
7.583456256,1.000038208593945,-161.74732673773642
7.589364736,1.0000261493381333,-162.01940668730302
7.595273216,1.0000126621216627,-162.2913100794401
7.601181696,0.9999984691121254,-162.56305262985188
7.607090176,0.9999843510758971,-162.83456977906806
7.612998656,0.9999711485550967,-163.1059099500028
7.618907136,0.9999596545286737,-163.377108852356
7.624815616,0.9999504675427818,-163.64814446406487
7.630723584,0.9999440934755464,-163.9190726643919
7.636632064,0.9999409996134592,-164.1899602645523
7.642540544,0.9999412829866315,-164.46081413264537
7.648449024,0.9999450007104972,-164.73171471290553
7.654357504,0.9999517614487552,-165.00268558768482
7.660265984,0.9999614290292984,-165.27377744575185
7.666174464,0.9999734443968762,-165.54500201176714
7.672082944,0.999986907333095,-165.81640802462047
7.677990912,1.000001265361184,-166.0880252922451
7.683899392,1.000015652801821,-166.3598446134268
7.689807872,1.0000291569994149,-166.63183873567007
7.695716352,1.000041195352946,-166.9040183875453
7.701624832,1.0000508111945572,-167.17638215904057
7.707533312,1.0000577391964565,-167.44883008899927
7.713441792,1.0000614289179595,-167.7213607588476
7.719350272,1.0000616069819546,-167.99391478570405
7.72525824,1.0000583742833844,-168.26647529323222
7.73116672,1.0000518482495702,-168.53896720461557
7.7370752,1.0000424516357256,-168.81134256817867
7.74298368,1.000030675589615,-169.0835817269658
7.74889216,1.0000171237409874,-169.35566489413597
7.75480064,1.0000026115311982,-169.62754092225927
7.76070912,0.9999879911054772,-169.89921814783295
7.7666176,0.9999741474775121,-170.1707137898293
7.77252608,0.9999616577534718,-170.44202720613126
7.778434048,0.9999514584021766,-170.71320027484143
7.784342528,0.9999440769877117,-170.98423022791752
7.790251008,0.9999398315347336,-171.25519134740546
7.796159488,0.9999391673321343,-171.52614116413736
7.802067968,0.9999419070682668,-171.7970805202942
7.807976448,0.9999480469484936,-172.068087693848
7.813884928,0.9999572590422021,-172.33921069432327
7.819793408,0.9999689318790717,-172.6104973876093
7.825701376,0.9999824086641288,-172.8819416686126
7.831609856,0.9999970479047591,-173.15355849423668
7.837518336,1.0000118497525348,-173.42542473607853
7.843426816,1.0000261998058255,-173.69746260228283
7.849335296,1.0000390207712355,-173.96970182653354
7.855243776,1.0000496947431057,-174.2421218798442
7.861152256,1.0000576647227617,-174.51466214732068
7.867060736,1.0000625065339062,-174.78727888737572
7.872969216,1.000063728651704,-175.05996328952884
7.878877184,1.0000614037279312,-175.3326442221042
7.884785664,1.0000556146536423,-175.60526904973545
7.890694144,1.0000467279098135,-175.87778244253388
7.896602624,1.0000352739661267,-176.15017600381788
7.902511104,1.0000216589772273,-176.42238706015584
7.908419584,1.000006981525802,-176.69441406201744
7.914328064,0.9999918861521171,-176.966227427943
7.920236544,0.9999771917791481,-177.23786082836745
7.926144512,0.9999640449132349,-177.5093223809499
7.932052992,0.9999527265506641,-177.78057898515704
7.937961472,0.9999442173054319,-178.05170581642898
7.943869952,0.9999388778250278,-178.32275463098495
7.949778432,0.9999371567766735,-178.59375008002596
7.955686912,0.9999390221367038,-178.86475045670375
7.961595392,0.9999443449539618,-179.13580245070813
7.967503872,0.9999529557370016,-179.40693262948957
7.973412352,0.9999642701638101,-179.6782324750797
7.97932032,0.9999777356689221,-179.94969427014212
7.9852288,0.9999925013890377,179.77865401032153
7.99113728,1.0000079027737352,179.5067942756629
7.99704576,1.000022804127283,179.23470769796305
8.00295424,1.0000365368391142,178.9624240233523
8.00886272,1.000048238894265,178.6899826956208
8.0147712,1.0000573538199446,178.41737844127763
8.02067968,1.0000632383353778,178.14465521529493
8.026587648,1.0000655676032066,177.8718932615781
8.032496128,1.0000642053736706,177.59912159150394
8.038404608,1.0000593522718841,177.3263819552717
8.044313088,1.0000510137227225,177.05371771121764
8.050221568,1.0000399412662213,176.7811870807573
8.056130048,1.000026525014771,176.50883295579962
8.062038528,1.0000116228690037,176.23669429068954
8.067947008,0.9999960756760483,175.96471662395186
8.073855488,0.9999808436652944,175.6929506938024
8.079763456,0.99996665282023,175.42143232056284
8.085671936,0.9999543122154658,175.15005293506067
8.091580416,0.9999447170368037,174.87882558028537
8.097488896,0.9999382679266922,174.607734622019
8.103397376,0.9999354340284088,174.33669359507832
8.109305856,0.9999361839710594,174.0656438862495
8.115214336,0.9999407589779351,173.79458297279163
8.121122816,0.9999486644275866,173.52339595878075
8.127030784,0.9999596332535005,173.2521372194428
8.132939264,0.999972946438027,172.98064355775364
8.138847744,0.9999878672666238,172.70899837343026
8.144756224,1.0000035511013894,172.43713720221845
8.150664704,1.0000190953664285,172.16505262758943
8.156573184,1.0000337988939634,171.89275293958696
8.162481664,1.0000464837382268,171.6202657976934
8.168390144,1.0000566559069402,171.34762877207342
8.174298624,1.0000636535756056,171.07484722499
8.180206592,1.0000671537103447,170.80199726170432
8.186115072,1.0000668879154018,170.52914759143152
8.192023552,1.000062859777313,170.25628810294015
8.197932032,1.0000552432236034,169.98353089346594
8.203840512,1.0000445599154033,169.71088553708486
8.209748992,1.0000312587806983,169.4384205155771
8.215657472,1.0000164076259075,169.16612146101792
8.221565952,1.0000005072716374,168.89405317054732
8.22747392,0.9999845555948215,168.62218510273928
8.2333824,0.9999696742933203,168.35054061716068
8.23929088,0.9999563819584777,168.07907429383167
8.24519936,0.9999457362772847,167.80778011712644
8.25110784,0.9999380233072978,167.53661634004516
8.25701632,0.9999339474281506,167.26553190634843
8.2629248,0.9999336925888741,166.9944580397073
8.26883328,0.9999372772180183,166.72337188159318
8.27474176,0.9999444668955692,166.45222504442094
8.280649728,0.9999548427987095,166.18094408287138
8.286558208,0.9999679555139872,165.90949568141264
8.292466688,0.9999829425475532,165.63785831053033
8.298375168,0.9999989484705658,165.3660094851901
8.304283648,1.0000151098003545,165.09392906832466
8.310192128,1.0000304865251466,164.82162651364123
8.316100608,1.0000442754740473,164.54914521291272
8.322009088,1.0000556785587469,164.2764605635055
8.327917056,1.0000637886913661,164.00366948831152
8.333825536,1.0000683992938766,163.73073607517165
8.339734016,1.0000692130123703,163.45782370887179
8.345642496,1.0000661581002674,163.18490051038893
8.351550976,1.0000594401533984,162.91203570216874
