freq,mag,phase
6.0,1.0000901574500058,41.30191428932183
6.006974464,1.0000248085575036,41.13858567718509
6.01394944,0.999957688443497,40.97614129270514
6.020923904,0.9998928842167273,40.81465008182465
6.02789888,0.9998341749958262,40.65392806909594
6.034873344,0.9997847490550981,40.49400406761362
6.04184832,0.9997475333625427,40.33464357522612
6.048822784,0.9997245892268796,40.175716168932496
6.05579776,0.9997171646003271,40.01697698512504
6.062772224,0.9997258233743492,39.85821697428848
6.0697472,0.9997500776675121,39.69927501680426
6.076721664,0.9997883177186315,39.539818399708665
6.08369664,0.999838768649526,39.37982038023815
6.090671104,0.9998982778222069,39.219053307752276
6.09764608,0.9999635925028305,39.05739111137485
6.104620544,1.0000309744739313,38.89484337094205
6.11159552,1.0000965805506714,38.73133882071066
6.118569984,1.0001567263674054,38.566989245150175
6.12554496,1.000207878458355,38.401839431560546
6.132519424,1.0002473489059458,38.23609314128255
6.1394944,1.0002726776619644,38.06990547028784
6.146468864,1.0002824969328656,37.9034402405268
6.15344384,1.0002763883693186,37.73697212945006
6.160418304,1.0002544402996079,37.57067746612231
6.16739328,1.0002180106771819,37.40477430271307
6.174367744,1.0001692078795756,37.23945131509377
6.18134272,1.0001107188510578,37.074854831523645
6.188317184,1.0000458204469629,36.911106390570076
6.19529216,0.9999782556182639,36.748287490140925
6.202266624,0.9999118219976543,36.586355798173834
6.2092416,0.9998504299538318,36.425296800941524
6.216216064,0.9997974195932993,36.26504215522202
6.22319104,0.9997558087092454,36.105383279391035
6.230165504,0.999728017173826,35.946266635911336
6.23714048,0.9997155698025896,35.787387075456316
6.244114944,0.9997193204272437,35.628575486639505
6.25108992,0.9997389105147768,35.46959253657124
6.258064384,0.9997733942465011,35.310253749874434
6.26503936,0.9998206091320214,35.15030769510155
6.272013824,0.9998780176864167,34.98963957863957
6.2789888,0.9999423975094018,34.82814045892304
6.285963264,1.000010008968209,34.665774709924996
6.29293824,1.000077059202286,34.50245696005196
6.299912704,1.0001396811625092,34.338218740941606
6.30688768,1.000194425319314,34.17315505924024
6.313862144,1.0002381134249416,34.00745030596388
6.32083712,1.0002682360785617,33.84118143237615
6.327811584,1.0002831762265163,33.67464333036704
6.33478656,1.0002819757878578,33.50797551557973
6.341761024,1.0002647745121147,33.34144601016165
6.348736,1.0002323783869977,33.175255128779945
6.355710464,1.0001867815246832,33.00957430665298
6.36268544,1.000130563311072,32.844606269548144
6.369659904,1.000066808183498,32.68044622600437
6.37663488,0.9999992624880656,32.51718283287865
6.383609344,0.9999316113861486,32.354852268713266
6.39058432,0.9998676679410357,32.19341566177703
6.397558784,0.9998112532480996,32.032804401929305
6.40453376,0.9997655033388185,31.872900822766095
6.411508224,0.9997329780799573,31.713514111273607
6.4184832,0.9997155212485006,31.554469562628377
6.425457664,0.9997141469743343,31.395551816602126
6.43243264,0.9997290545586065,31.236563966902136
6.439407104,0.9997592115476481,31.07722152572467
6.44638208,0.9998031079418888,30.91738114527278
6.453356544,0.9998580687214651,30.756863753895338
6.46033152,0.999921126069214,30.595503733008222
6.467305984,0.9999886674134169,30.43328318634643
6.47428096,1.0000567541056766,30.270101983840743
6.481255424,1.0001217197437478,30.105991172138552
6.4882304,1.0001797558038026,29.941040973789164
6.495204864,1.0002275168764045,29.775352750299724
6.50217984,1.0002623658951844,29.609105889892962
6.509154304,1.0002823174539446,29.442471350602588
6.51612928,1.0002861686312712,29.27563939563849
6.523103744,1.0002737295214563,29.10890068591069
6.53007872,1.0002457937264215,28.94242101572414
6.537053184,1.0002037545702773,28.776397434416563
6.544027648,1.0001500588847734,28.6110502023442
6.551002624,1.0000878051169524,28.446467065230753
6.557977088,1.000020493563533,28.282775382120292
6.564952064,0.9999518961673337,28.120028047948605
6.571926528,0.9998859594943093,27.958212999833552
6.578901504,0.9998263960011015,27.797221744469915
6.585875968,0.9997766382751931,27.63700350218317
6.592850944,0.999739428221103,27.477336146152123
6.599825408,0.9997170073608421,27.318124958347177
6.606800384,0.9997105261129995,27.159107700776552
6.613774848,0.9997204543830281,27.000030817427
6.620749824,0.999746211708418,26.840713176607483
6.627724288,0.9997863861282379,26.680942861151664
6.634699264,0.9998386212715658,26.520523870205526
6.641673728,0.9998999685679051,26.359339582321837
6.648648704,0.9999670403607707,26.197240800860726
6.655623168,1.000035921808364,26.034228606086057
6.662598144,1.0001028305117727,25.87024660948705
6.669572608,1.0001637911800674,25.70540830604483
6.676547584,1.0002154926983748,25.539803791216688
6.683522048,1.0002548981202692,25.373524268406783
6.690497024,1.0002799072158155,25.20683117213676
6.697471488,1.0002888569947126,25.03987520871963
6.704446464,1.0002814878097621,24.872893884677776
6.711420928,1.000258002037563,24.70616365492691
6.718395904,1.000219876863261,24.53979118997936
6.725370368,1.0001691475440264,24.374073432491382
6.732345344,1.000108691086621,24.209074015055002
6.739319808,1.000041966846506,24.044951783722002
6.746294784,0.9999729004444475,23.88179744183292
6.753269248,0.9999051101135131,23.719530705103345
6.760244224,0.9998427196659165,23.558180681424936
6.767218688,0.9997891330866383,23.397607078853504
6.774193664,0.9997473914769887,23.23768883091684
6.781168128,0.9997199563993776,23.078234277310013
6.788143104,0.9997083454489026,22.919095637672807
6.795117568,0.9997132255335703,22.759917561478378
6.802092544,0.9997343804498231,22.600569529322158
6.809067008,0.9997704637726947,22.44089468742404
6.816041984,0.9998196850248574,22.28058779936339
6.823016448,0.9998789808695724,22.119517416920537
6.829991424,0.999945172623814,21.95758475534413
6.836965888,1.0000145155476703,21.79471531513546
6.843940864,1.0000830228820676,21.630896797355714
6.850915328,1.0001467094569225,21.466132639427663
6.857890304,1.0002021730343318,21.300593806028026
6.864864768,1.0002459852507695,21.13435536916456
6.871839744,1.00027589439261,20.967591831859455
6.878814208,1.000290166759227,20.800511519039297
6.885789184,1.0002878702710323,20.633343432685873
6.892763648,1.0002690847832472,20.466351577094926
6.899738624,1.0002350411941152,20.299681651981658
6.906713088,1.0001875190786271,20.133560802021606
6.913688064,1.0001293770228825,19.968164954083118
6.920662528,1.0000637046733045,19.803633865576316
6.927637504,0.9999943278656543,19.64000860060585
6.934611968,0.9999251505096974,19.477336498746574
6.941586944,0.9998601807621975,19.315562081389263
6.948561408,0.9998030027831453,19.15462307289316
6.955536384,0.9997568585082203,18.99442135145144
6.962510848,0.9997245138937635,18.834735197793062
6.969485824,0.9997076979611271,18.675385394979678
6.976460288,0.9997074196844248,18.51612905390276
6.983435264,0.9997236974969259,18.356794065921594
6.990409728,0.9997556214274074,18.19709524268089
6.997384704,0.9998014007396389,18.036857763343907
7.004359168,0.9998583172234774,17.875912741106916
7.011334144,0.999923409212819,17.714152047937887
7.018308608,0.9999927110691662,17.551426968341687
7.025283584,1.0000624478891889,17.38776407736762
7.032258048,1.000128623912301,17.223135869163492
7.039233024,1.0001874408424805,17.057640945626886
7.046207488,1.0002356281330897,16.89145498000418
7.053182464,1.0002704758368532,16.72467513881564
7.060156928,1.000289841632098,16.55747394274767
7.067131392,1.000292704688086,16.390163038762672
7.074106368,1.0002789058081698,16.22286901046814
7.081080832,1.0002491570932768,16.055884721453335
7.088055808,1.0002053069356318,15.889420146058333
7.095030272,1.000149673741572,15.72360203082112
7.102005248,1.000085410343272,15.55862124208252
7.108979712,1.0000162361433467,15.394578063706973
7.115954688,0.9999459692841536,15.23144427525741
7.122929152,0.9998786741474175,15.069245320091738
7.129904128,0.9998181537776244,14.907967289992591
7.136878592,0.9997678171588041,14.74743166055861
7.143853568,0.9997306704819017,14.58743330807064
7.150828032,0.9997085804296566,14.427903684046615
7.157803008,0.9997030578731363,14.268553448249177
7.164777472,0.9997143525249909,14.109144025123953
7.171752448,0.9997417838130707,13.949494929380723
7.178726912,0.9997838269525127,13.789305761715655
7.185701888,0.9998381373377059,13.628458783364605
7.192676352,0.9999015506827365,13.466823547300798
7.199651328,0.9999705403144298,13.304262354261608
7.206625792,1.000041204848007,13.140761625609814
7.213600768,1.0001095350945937,12.976292663834485
7.220575232,1.0001716251551933,12.810894616836555
7.227550208,1.0002238697096244,12.64471373187946
7.234524672,1.0002634325853423,12.477894982166115
7.241499648,1.0002879944623142,12.310628670189175
7.248474112,1.0002961868533629,12.14312355047259
7.255449088,1.000287446041118,11.975618974939595
7.262423552,1.0002623490085976,11.808379758058736
7.269398528,1.0002223403317099,11.641487693138561
7.276372992,1.000169474915094,11.475305734792572
7.283347968,1.000107072072498,11.309902673106834
7.290322432,1.0000383431029616,11.145357615461705
7.297297408,0.9999673957212035,10.981806096413486
7.304271872,0.9998980497434609,10.819198918607777
7.311246848,0.9998345281744015,10.657498201702396
7.318221312,0.9997802209840626,10.496596104119945
7.325196288,0.9997382731116519,10.33634112674564
7.332170752,0.9997111645086666,10.17657442345725
7.339145728,0.9997003310525205,10.01706460431706
7.346120192,0.9997063989984994,9.85757843050203
7.353095168,0.9997291503075741,9.69786840183843
7.360069632,0.999767148797832,9.537770128409932
7.367044608,0.9998182973700874,9.377045289362208
7.374019072,0.9998797961170852,9.215530474802357
7.380994048,0.9999481856445745,9.053115269818894
7.387968512,1.0000193847819245,8.889760228813325
7.394943488,1.000089446123285,8.72540226902084
7.401917952,1.0001543738151817,8.560112616856513
7.408892928,1.0002106669563282,8.393993433196616
7.415867392,1.0002548456489144,8.227184636192852
7.422842368,1.0002845433112824,8.05984720311001
7.429816832,1.0002980511732207,7.892202147804928
7.436791808,1.0002945416695035,7.724454306043781
7.443766272,1.0002742891852188,7.556938711331571
7.450741248,1.0002383980184364,7.389750673184553
7.457715712,1.0001887999456365,7.223152224851633
7.464690688,1.0001285082207054,7.057292939108407
7.471665152,1.000060721634648,6.892313113010529
7.478640128,0.9999893207757173,6.72829201072139
7.485614592,0.9999184420980166,6.5652375490328065
7.492589568,0.9998520504829091,6.403103924019386
7.499564032,0.9997939941073987,6.241813064574284
7.506539008,0.9997475509961768,6.081264183583574
7.513513472,0.9997152239629722,5.921249969821231
7.520488448,0.9996990405066736,5.76157753698244
7.527462912,0.9996999052019644,5.601971697010783
7.534437888,0.9997175781514288,5.442229160444783
7.541412352,0.9997513729283976,5.282178679917383
7.548387328,0.9997992424458799,5.121522027574099
7.555361792,0.9998583626558539,4.960118617778191
7.562336768,0.9999256672728443,4.7978860958879155
7.569311232,0.9999970123878215,4.634642446286009
7.576286208,1.0000685254011488,4.470418165885772
7.583260672,1.000136204694564,4.3052832126409495
7.590235648,1.000195972257242,4.139207515583639
7.597210112,1.000244787249091,3.9724167972598408
7.604184576,1.0002794639062822,3.8049976931062974
7.611159552,1.0002983737973303,3.637216167260294
7.618134016,1.000300249791346,3.469335334219482
7.625108992,1.0002850323255597,3.301507229633921
7.632083456,1.0002535104176327,3.1339932860115587
7.639058432,1.0002075435464728,2.9669793115381706
7.646032896,1.0001496407956927,2.8006896150530802
7.653007872,1.0000830716341058,2.6352398494194302
7.659982336,1.0000117946006275,2.4707434044507157
7.666957312,0.9999396413390922,2.3072527458458865
7.673931776,0.9998708076426339,2.144665105763496
7.680906752,0.999809233221507,1.9830140883310383
7.687881216,0.9997582567261905,1.82212291949569
7.694856192,0.9997208976112567,1.6618229768962216
7.701830656,0.9996993665313202,1.5019305451795282
7.708805632,0.9996948177630892,1.3422150030655966
7.715780096,0.9997074381982235,1.1824478725845275
7.722755072,0.9997366707053617,1.0223550732118194
7.729729536,0.999780732121045,0.8617809216403665
7.736704512,0.9998372633292857,0.700515962046127
7.743678976,0.9999030009850576,0.5383937251790598
7.750653952,0.9999741871339449,0.37531357763702905
7.757628416,1.0000468515457501,0.21124843906886187
7.764603392,1.0001167923849068,0.046184172180985306
7.771577856,1.0001800460480044,-0.11978505441146262
7.778552832,1.000233048123447,-0.2865711161158195
7.785527296,1.0002729186319848,-0.45399237918095076
7.792502272,1.0002971010392268,-0.6218846889611261
7.799476736,1.0003045212378712,-0.789946865077445
7.806451712,1.000294333025314,-0.95805635352716
7.813426176,1.0002676251150995,-1.1258988125831497
7.820401152,1.0002254065185914,-1.293273769367344
7.827375616,1.000170496649914,-1.4599883903054518
7.834350592,1.000105648834649,-1.6259150415194346
7.841325056,1.0000346892306482,-1.7908615350437112
7.848300032,0.9999616012631395,-1.9548614913032534
7.855274496,0.9998906280399835,-2.117875043810011
7.862249472,0.9998256954189116,-2.2799284739450596
7.869223936,0.9997704998725442,-2.4412101895085665
7.876198912,0.9997282725165701,-2.601798345549249
7.883173376,0.9997012645936355,-2.7619327584862523
7.890148352,0.9996912521853092,-2.9218009883283313
7.897122816,0.9996986101376893,-3.0816467251812614
7.904097792,0.9997231197434826,-3.2417285340702477
7.911072256,0.9997631561096135,-3.4022815947220497
7.918047232,0.9998166213387755,-3.563448306731616
7.925021696,0.9998804625433646,-3.72545261912823
7.931996672,0.9999511438871022,-3.888377164673322
7.938971136,1.0000244776494234,-4.052296946720562
7.945946112,1.0000963799821172,-4.217218507657765
7.952920576,1.0001628080181577,-4.383090604042041
7.959895552,1.0002199346203517,-4.549854744805217
7.966870016,1.0002646676547748,-4.717267432790564
7.973844992,1.0002942795385479,-4.885244689441355
7.980819456,1.000307008830887,-5.053527684204672
7.987794432,1.0003023587744488,-5.221822386029963
7.994768896,1.00028047722006,-5.390009205489511
8.001743872,1.0002424294315153,-5.557747926125308
8.008718336,1.000190673773048,-5.724883440211578
8.015693312,1.0001278941676774,-5.891268958324587
8.022667776,1.0000578441782135,-6.056702315374757
8.029642752,0.9999842062111843,-6.2211833219843555
8.036617216,0.9999113949490217,-6.384684836151531
8.043592192,0.9998434870420706,-6.54719013482385
8.050566656,0.9997842571621255,-6.708826286138212
8.057541632,0.9997371335607717,-6.869740721696941
8.064516096,0.9997049283296054,-7.030141348083081
8.071491072,0.9996893335543964,-7.190197939890209
8.078465536,0.9996913438381329,-7.350154797312667
8.085440512,0.9997106283752295,-7.510259499450461
8.092414976,0.9997464155559916,-7.670781679745278
8.099389952,0.9997964754187992,-7.831862812733593
8.106364416,0.9998581139735101,-7.993739395297211
8.113339392,0.9999277062000651,-8.156523059854376
8.120313856,1.0000014024052408,-8.320301361908058
8.127288832,1.000075027688354,-8.485101704808482
8.134263296,1.0001443754529347,-8.650871717400257
8.14123776,1.000205417584367,-8.817564547929088
8.148212736,1.0002547472085483,-8.985014625473772
8.1551872,1.0002896485711883,-9.153037408649336
8.162162176,1.0003080583382356,-9.321459377234474
8.16913664,1.00030883164596,-9.490021466661409
8.176111616,1.000292057277348,-9.65845114900282
8.18308608,1.0002586366818853,-9.826563353674622
8.190061056,1.000210459834324,-9.994132509604617
8.19703552,1.0001500065375062,-10.160941621611157
8.204010496,1.0000810910450642,-10.32690069505497
8.21098496,1.0000073806726728,-10.491858546838712
8.217959936,0.9999330271888182,-10.65583662102676
8.2249344,0.9998624401944545,-10.818783872010764
8.231909376,0.9997994354945867,-10.98085029131633
8.23888384,0.9997477920701293,-11.142128470361612
8.245858816,0.9997102265442951,-11.30278193779913
8.25283328,0.9996891094150011,-11.463054474603835
8.259808256,0.9996854056801664,-11.62317324984554
8.26678272,0.9996995186359112,-11.783331942611756
8.273757696,0.9997307717619692,-11.943850116796723
8.28073216,0.9997771536680878,-12.104885843523363
8.287707136,0.9998360727724376,-12.26661392351492
8.2946816,0.9999043280960648,-12.429265249622306
8.301656576,0.9999779833485734,-12.592903384248205
8.30863104,1.000052848625997,-12.757557658904474
8.315606016,1.0001248087927146,-12.923231271627541
8.32258048,1.0001894034973897,-13.089829661074564
8.329555456,1.000243464616895,-13.257282244888497
8.33652992,1.000283573135475,-13.425375614492966
8.343504896,1.0003075195272924,-13.593905145946431
8.35047936,1.0003139201383324,-13.762655624096308
8.357454336,1.0003024884819618,-13.931407152823853
8.3644288,1.0002736783280854,-14.099867123722808
8.371403776,1.0002294069629558,-14.267836624458951
8.37837824,1.00017192417158,-14.435130125132442
8.385353216,1.000104495718647,-14.601575615266785
8.39232768,1.0000310349825994,-14.767013191262778
8.399302656,0.9999556383458947,-14.931485486690631
8.40627712,0.9998826509852654,-15.094912820718715
8.413252096,0.9998161286590601,-15.257427556046766
8.42022656,0.9997599086098131,-15.41905700680116
8.427201536,0.9997172047186753,-15.580039993608443
8.434176,0.9996904735435305,-15.740525165685941
8.441150976,0.9996810861891934,-15.900796832118358
8.44812544,0.9996898451612075,-16.061063428930776
8.455100416,0.9997160429206532,-16.221581859155492
8.46207488,0.9997584025040617,-16.38256113787862
8.469049856,0.9998144759704942,-16.544204959937083
8.47602432,0.9998809003251381,-16.706726056149872
8.482999296,0.9999540668433167,-16.870214022246746
8.48997376,1.0000298740394566,-17.034723339413546
8.496948736,1.0001038984461357,-17.20027243806143
8.5039232,1.0001720127199112,-17.366798799421957
8.510898176,1.0002304126992587,-17.534224155379484
8.51787264,1.0002756187901118,-17.702343041389508
8.524847616,1.000305203513691,-17.871002215362566
8.53182208,1.0003173321072718,-18.03995056221604
8.538797056,1.0003113414314915,-18.208954759376898
8.54577152,1.0002876320310696,-18.37774639601655
8.552746496,1.0002474841080546,-18.546141411371732
8.55972096,1.0001932053732752,-18.71385841625859
8.566695936,1.0001278969968872,-18.880778101848655
8.5736704,1.0000550182269787,-19.04675875720533
8.580645376,0.9999787910947223,-19.211734479258062
8.58761984,0.9999038177828402,-19.375659338748846
8.594594816,0.9998340343134428,-19.538602805118266
8.60156928,0.9997736300694422,-19.70063957232259
8.608543744,0.9997258635612226,-19.86196292684153
8.615519232,0.9996934562774427,-20.022723403136517
8.622493696,0.9996784343222703,-20.183194300987456
8.62946816,0.9996816168036885,-20.34357060528753
8.636442624,0.9997027237859666,-20.50409669183922
8.643418112,0.999740649470077,-20.66504876018943
8.650392576,0.9997932429036959,-20.826643577557267
8.65736704,0.9998575422007556,-20.98901923612657
8.664341504,0.9999299396604081,-21.152367260475852
8.671315968,1.0000061804719602,-21.316733680923505
8.678291456,1.0000820667478734,-21.48214609804481
8.68526592,1.000153442513865,-21.64859371565493
8.692240384,1.0002158734988067,-21.81597379592205
8.699214848,1.0002660414794238,-21.98411991423776
8.706190336,1.0003011023952095,-22.152858010524305
8.7131648,1.0003190455811115,-22.321984547680803
8.720139264,1.000318797486752,-22.491218783234856
8.727113728,1.0003003934081125,-22.66034346682624
8.734089216,1.0002647769925275,-22.82911275003063
8.74106368,1.000214016021308,-22.997316409997666
8.748038144,1.000151038466619,-23.164733568124575
8.755012608,1.0000791989417324,-23.331203960375642
8.761988096,1.0000028129000536,-23.49668730157359
8.76896256,0.999926099053176,-23.661120215101278
8.775937024,0.9998533809079734,-23.8245361923851
8.782911488,0.9997888809580173,-23.98701911067169
8.789886976,0.999736284123011,-24.148679349442183
8.79686144,0.9996984045713487,-24.309760521354914
8.803835904,0.9996774411455369,-24.47043734241599
8.810810368,0.9996748997739213,-24.630964281344067
