freq,mag,phase
6.0,1.0007261120188573,11.610566393160775
6.00883968,1.000717173079797,11.347879207418954
6.01767936,1.0006704243599382,11.085533030970206
6.026519552,1.0005879391228436,10.824065006037264
6.035359232,1.0004743495517818,10.56381196401967
6.044198912,1.0003354992250029,10.30528442116287
6.053038592,1.0001788566060554,10.048599138117178
6.061878272,1.0000127081055175,9.794124705063007
6.070718464,0.9998459071815371,9.541790601289478
6.079558144,0.999687272292734,9.29164164807169
6.088397824,0.999545199632307,9.043431018049862
6.097237504,0.9994275642124011,8.79694365947123
6.106077184,0.9993404021333554,8.551819301737812
6.114917376,0.9992884888624196,8.307613896663314
6.123757056,0.9992746974047946,8.063818194835232
6.132596736,0.9992996349184105,7.819919769002925
6.141436416,0.9993621108720431,7.575420058277688
6.150276096,0.9994587990299386,7.32981749404425
6.159115776,0.9995845380583969,7.082770224201571
6.167955968,0.9997327255329579,6.833822257027627
6.176795648,0.9998953910895566,6.582832985701194
6.185635328,1.0000639772115634,6.329572894469765
6.194475008,1.0002294042362587,6.074062007724564
6.203314688,1.0003829268840312,5.816465395082138
6.21215488,1.0005163733631441,5.55684599974154
6.22099456,1.0006225561750879,5.295691624709274
6.22983424,1.0006958607340388,5.033282560083065
6.23867392,1.000732334344074,4.77011073509615
6.2475136,1.0007300594869477,4.506695494244367
6.256353792,1.0006890533135928,4.243518910461963
6.265193472,1.0006115426667275,3.9811447662484736
6.274033152,1.0005015667112898,3.7199524763028524
6.282872832,1.0003649560245385,3.460387902445182
6.291712512,1.0002089144321078,3.2027452598954955
6.300552704,1.000041691963966,2.9471999081357128
6.309392384,0.9998723066506656,2.693919407666208
6.318232064,0.9997096897247403,2.4427897045791434
6.327071744,0.9995626273609126,2.1936987949233724
6.335911424,0.9994388954963408,1.946384390694564
6.344751616,0.9993450690247011,1.7005293355863285
6.353591296,0.9992862726476078,1.455689681819047
6.362430976,0.9992655728252015,1.2112948404623176
6.371270656,0.9992841769567338,0.9669597588579802
6.380110336,0.9993410968618794,0.7220785404588677
6.388950528,0.9994334619032279,0.47617519026129185
6.397790208,0.9995562267103582,0.22880841663172918
6.406629888,0.9997028147014239,-0.02035148458517989
6.415469568,0.999865619237951,-0.27159548358195024
6.424309248,1.0000358552036515,-0.5250824209655747
6.433148928,1.0002044777075665,-0.7809070405441552
6.44198912,1.0003625549677808,-1.0388533465668848
6.4508288,1.0005016808333478,-1.2988473645817715
6.45966848,1.000614284158942,-1.5604920044712522
6.46850816,1.0006944949567467,-1.8234671193689518
6.47734784,1.0007380275704147,-2.087300740474814
6.486188032,1.0007424524361133,-2.3515020709300787
6.495027712,1.0007074559443663,-2.615522628818685
6.503867392,1.0006350422294552,-2.87880642097139
6.512707072,1.0005289201477847,-3.140959193790752
6.521546752,1.0003947520129635,-3.4015765434399126
6.530386944,1.0002394653375994,-3.660268114947161
6.539226624,1.000071438187314,-3.916853523844251
6.548066304,0.9998998050815593,-4.17117088643747
6.556905984,0.9997333249789415,-4.4232928629919375
6.565745664,0.9995811617328682,-4.673297158720691
6.574585856,0.9994511767734272,-4.921441862610593
6.583425536,0.9993505935974952,-5.168089611015591
6.592265216,0.9992846017766067,-5.413673408421615
6.601104896,0.999256947149674,-5.658609677739464
6.609944576,0.999268977993711,-5.903439179792199
6.618784768,0.9993202776465787,-6.148726972056982
6.627624448,0.9994079263772699,-6.39501939775439
6.636464128,0.9995273873679137,-6.642665707017782
6.645303808,0.9996723398882976,-6.892060415581035
6.654143488,0.9998350123399699,-7.143569702517569
6.66298368,1.0000067529365533,-7.397365069129946
6.67182336,1.0001785223249542,-7.653435985732709
6.68066304,1.0003410064479228,-7.911741403497857
6.68950272,1.0004857604260242,-8.172119784223431
6.6983424,1.0006049484745572,-8.434300367220931
6.70718208,1.000692255895117,-8.697877725954333
6.716022272,1.0007429211480137,-8.962364259459486
6.724861952,1.0007542052189324,-9.22734491689094
6.733701632,1.00072561220392,-9.492209452833581
6.742541312,1.0006585310760454,-9.756459230348767
6.751380992,1.0005565035480946,-10.019658840007766
6.760221184,1.00042496138323,-10.281284263012568
6.769060864,1.0002706843426181,-10.541085891045698
6.777900544,1.0001021670215886,-10.798744267237314
6.786740224,0.9999281061171117,-11.054143788881708
6.795579904,0.999757901022972,-11.30728345338768
6.804420096,0.9996005147200211,-11.558250909524709
6.813259776,0.9994645220254732,-11.807326971795273
6.822099456,0.9993570975633183,-12.054760324154032
6.830939136,0.9992838465368945,-12.301032800336964
6.839778816,0.999248974561304,-12.546599517415931
6.848619008,0.9992542848261757,-12.792010373694373
6.857458688,0.9992994686139249,-13.03776393265261
6.866298368,0.9993822580500743,-13.28436641997009
6.875138048,0.9994981241293738,-13.532348808810562
6.883977728,0.9996411321758792,-13.782051030326967
6.89281792,0.999803472916866,-14.033828551008465
6.9016576,0.9999766722069041,-14.287854914749571
6.91049728,1.0001514305803854,-14.5442389535228
6.91933696,1.0003184426140777,-14.802915356375776
6.92817664,1.000468883758505,-15.063750488836924
6.93701632,1.0005946622115625,-15.326394255792259
6.945856512,1.0006890576323355,-15.590581301803
6.954696192,1.0007470230890763,-15.855784151560872
6.963535872,1.0007655361499528,-16.121547913460144
6.972375552,1.0007434677441438,-16.387287223748277
6.981215232,1.0006820411515882,-16.652536458147903
6.990055424,1.0005843059493005,-16.916720860249143
6.998895104,1.0004555980795937,-17.179466472367885
7.007734784,1.0003028003030803,-17.44035595080549
7.016574464,1.0001337391178071,-17.6991576359567
7.025414144,0.9999575762459163,-17.955669636397623
7.034254336,0.999783728695684,-18.209877338600084
7.043094016,0.9996213305238589,-18.461848088429658
7.051933696,0.9994790406470903,-18.711853441410305
7.060773376,0.9993645759253421,-18.960142331000593
7.069613056,0.9992841539913035,-19.207174092637565
7.078453248,0.999241698542118,-19.45341702892431
7.087292928,0.9992399612648071,-19.69936817525381
7.096132608,0.9992790194829951,-19.945606137173073
7.104972288,0.9993565653012135,-20.192606750264034
7.113811968,0.9994686493048385,-20.440944430226953
7.12265216,0.9996093145820367,-20.690952258185206
7.13149184,0.9997712301134937,-20.943005097502958
7.14033152,0.9999456306158813,-21.19733995664841
7.1491712,1.0001232516139495,-21.454034069022107
7.15801088,1.0002946967319064,-21.713058589046135
7.166851072,1.00045071758132,-21.9743249997354
7.175690752,1.0005830495866388,-22.23750828232288
7.184530432,1.0006848092696348,-22.502292744557366
7.193370112,1.0007503640806183,-22.768228964514666
7.202209792,1.0007762233520912,-23.0347812926699
7.211049472,1.0007610045254087,-23.301454718633895
7.219889664,1.000705523837896,-23.567665128871525
7.228729344,1.000612419909903,-23.832920004153323
7.237569024,1.0004868456612863,-24.09681580291174
7.246408704,1.0003354676024048,-24.358853422599157
7.255248384,1.000166160824567,-24.6187792825028
7.264088576,0.9999880521725323,-24.876463096816554
7.272928256,0.9998105977219373,-25.13174532852016
7.281767936,0.9996431295310932,-25.384821500566545
7.290607616,0.9994946318017329,-25.63578094612943
7.299447296,0.9993731311497335,-25.884978394328783
7.308287488,0.9992849999699661,-26.13281806570185
7.317127168,0.9992352157175228,-26.379737516885626
7.325966848,0.9992261616638015,-26.626284333579772
7.334806528,0.9992584982597222,-26.873016585575897
7.343646208,0.9993307203665264,-27.12046228551158
7.3524864,0.999438756482481,-27.369160492365513
7.36132608,0.9995770393882191,-27.6194936753907
7.37016576,0.9997380950487614,-27.87184146473311
7.37900544,0.9999135646358457,-28.12646085103673
7.38784512,1.0000938205465109,-28.383480587503445
7.396685312,1.0002695858447115,-28.642907358135105
7.405524992,1.0004313500144184,-28.904605555032465
7.414364672,1.0005705117639727,-29.168316188264214
7.423204352,1.0006796229796457,-29.43372077316032
7.432044032,1.0007527093619069,-29.7003715167034
7.440884224,1.0007862675165167,-29.96773923699302
7.449723904,1.0007779642424217,-30.235356711063123
7.458563584,1.000728679349821,-30.502596209519805
7.467403264,1.0006406647015411,-30.76894779464371
7.476242944,1.0005184863869683,-31.033956535291644
7.485082624,1.0003689121887411,-31.29718004295824
7.493922816,1.00019963329663,-31.558306835923517
7.502762496,1.000019844054215,-31.817164705489528
7.511602176,0.9998386684947147,-32.07364051669198
7.520441856,0.9996662835534221,-32.32778627066684
7.529281536,0.9995115154295179,-32.57978692949151
7.538121728,0.9993828111600089,-32.82992435538507
7.546961408,0.9992870560317006,-33.07855830053195
7.555801088,0.9992294126471473,-33.32620518965656
7.564640768,0.999212854855648,-33.57342078418243
7.573480448,0.9992383765214262,-33.82069661938743
7.58232064,0.9993048148797576,-34.06857142055976
7.59116032,0.9994084620835714,-34.31766612297168
7.6,0.9995439416113314,-34.568317495012536
7.60883968,0.9997039902262511,-34.8210259696042
7.61767936,0.9998803203217923,-35.075958432742596
7.626519552,1.0000633580539429,-35.33331125422792
7.635359232,1.0002433180608852,-35.59309219998011
7.644198912,1.0004105848492972,-35.855262291789444
7.653038592,1.0005566535980268,-36.119492865191646
7.661878272,1.0006733081871106,-36.38555868781391
7.670718464,1.0007544145699605,-36.652935239999096
7.679558144,1.0007957171564252,-36.92115363713792
7.688397824,1.0007947893193405,-37.18970233074178
7.697237504,1.000751901786342,-37.45798972509686
7.706077184,1.0006690791639237,-37.725462494236524
7.714917376,1.0005507710319914,-37.99163424972701
7.723757056,1.0004031079979876,-38.25608655468282
7.732596736,1.0002340445106488,-38.51845272805507
7.741436416,1.0000524944213813,-38.77854834218731
7.750276096,0.9998681440242843,-39.036188923083245
7.759115776,0.9996906838463694,-39.29148573236638
7.767955968,0.9995297355007278,-39.54455392596088
7.776795648,0.9993938541984424,-39.79563625159087
7.785635328,0.9992901423574808,-40.04519708225927
7.794475008,0.9992244470703602,-40.29360972151354
7.803314688,0.9991999486209392,-40.541486343763076
7.81215488,0.9992184713193066,-40.789322901612714
7.82099456,0.999278810478005,-41.03769530220172
7.82983424,0.999377692072891,-41.28718898295146
7.83867392,0.9995102682437883,-41.53821671474157
7.8475136,0.999669092555033,-41.79122567296281
7.856353792,0.9998459254989457,-42.04649323501287
7.865193472,1.0000314135032782,-42.30418323757625
7.874033152,1.000215575800674,-42.564370802460694
7.882872832,1.000388746083815,-42.826968335442594
7.891712512,1.000541381747984,-43.09179290432926
7.900552704,1.0006656739591637,-43.358467654285924
7.909392384,1.0007549626725116,-43.62661210976125
7.918232064,1.0008042823931325,-43.89570602201137
7.927071744,1.0008111172918606,-44.16519381244842
7.935911424,1.0007749126966758,-44.434526551538475
7.944751616,1.0006977110212265,-44.70313743372977
7.953591296,1.0005835117688582,-44.97054652002676
7.962430976,1.0004381728972396,-45.236225140012
7.971270656,1.0002695615647954,-45.49986108991285
7.980110336,1.0000865155314047,-45.76121202402907
7.988950528,0.9998987933464336,-46.02011405517499
7.997790208,0.9997165638789847,-46.27659745457129
8.006629888,0.9995492897566437,-46.53076507733456
8.015469568,0.999405852951926,-46.7828924983226
8.024309248,0.9992942774939269,-47.033349951272136
8.033148928,0.9992201212894745,-47.28260491641218
8.04198912,0.9991877565723697,-47.531142271838696
8.0508288,0.9991987142697208,-47.77959616872826
8.05966848,0.999252669772189,-48.02847955840034
8.06850816,0.9993466347334184,-48.27839465346209
8.07734784,0.9994757290342663,-48.52981804915731
8.086188032,0.9996331226270309,-48.78316614583164
8.095027712,0.9998103775267276,-49.03878414818276
8.103867392,0.9999981104627552,-49.29682913728893
8.112707072,1.0001864377430807,-49.55743162900487
8.121546752,1.0003649852761474,-49.82050988679485
8.130386944,1.000524775896991,-50.08584337756488
8.139226624,1.000656961979996,-50.35318678624226
8.148066304,1.0007544651491076,-50.622073936143245
8.156905984,1.000812169894902,-50.89202241909767
8.165745664,1.0008269878565452,-51.16252544291772
8.174585856,1.0007979346125069,-51.432921975136686
8.183425536,1.0007265664393492,-51.702720589768184
8.192265216,1.0006166855717342,-51.97134539450238
8.201104896,1.0004740055263701,-52.238322217478
8.209944576,1.0003061088040466,-52.50329357608442
8.218784768,1.000121766842464,-52.765941482773535
8.227624448,0.999931050204678,-53.02614374814053
8.236464128,0.9997438525139387,-53.28381228797926
8.245303808,0.9995701201067814,-53.539170269648395
8.254143488,0.9994193990228545,-53.792381094454235
8.26298368,0.9992993844138628,-54.04377256773928
8.27182336,0.9992168898472673,-54.29387258886808
8.28066304,0.9991761427564808,-54.54315303879137
8.28950272,0.9991794079638401,-54.79224731021017
8.2983424,0.9992265967684508,-55.041667600398455
8.30718208,0.9993152206910974,-55.29202389220191
8.316022272,0.9994405222641737,-55.54384393042651
8.324861952,0.9995961235480445,-55.7975735827517
8.333701632,0.999773538059111,-56.05352014483675
8.342541312,0.999963407676666,-56.31194150956734
8.351380992,1.0001556410124053,-56.57294714385888
8.360221184,1.0003400506408602,-56.83651332217175
8.369060864,1.000506727510994,-57.10241421741283
8.377900544,1.0006468530211703,-57.37038855922295
8.386740224,1.000752961156863,-57.640055574235895
8.395579904,1.0008193218050196,-57.91089265667038
8.404420096,1.0008423344611175,-58.182365578611694
8.413259776,1.0008206682290477,-58.45389847836276
8.422099456,1.000755670491571,-58.72488928657605
8.430939136,1.0006505066777949,-58.99478000415211
8.439778816,1.0005108267325238,-59.26309181585314
8.448619008,1.0003437547269547,-59.529402159385405
8.457458688,1.000158568245669,-59.79338024952561
8.466298368,0.9999647134326408,-60.05491057083708
8.475138048,0.999772659810917,-60.3138918928994
8.483977728,0.9995927359377481,-60.57041792714728
8.49281792,0.999434274712964,-60.82472652529581
8.5016576,0.9993059027540453,-61.077155938761784
8.51049728,0.9992145800316362,-61.328143824865826
8.51933696,0.9991652748892144,-61.57821042474749
8.52817664,0.9991604096054064,-61.82795857178581
8.53701632,0.999200380657911,-62.07795816470147
8.545856512,0.9992833200551423,-62.32878806220421
8.554696192,0.9994047178466045,-62.58102164763328
8.563535872,0.999558133604576,-62.83512813289781
8.572375552,0.9997354159879157,-63.09143090368134
8.581215232,0.9999272700540539,-63.350252082949076
8.590055424,1.0001233513303562,-63.611672930680406
8.598894592,1.0003132968916566,-63.875691006406036
8.607734784,1.000487154527574,-64.14215001665835
8.616574976,1.0006354559511348,-64.41080211468477
8.625414144,1.0007501262428877,-64.68124828808075
8.634254336,1.0008254285770477,-64.95299002204942
8.643093504,1.000857048678805,-65.22546880595597
8.651933696,1.000843358048164,-65.49812387483851
8.660773888,1.0007849924623047,-65.77032502050497
8.669613056,1.0006849259797694,-66.04153230859632
8.678453248,1.0005483814456255,-66.31120734787527
8.687292416,1.0003826645457479,-66.57888390557108
8.696132608,1.0001965964168271,-66.84430625459733
8.7049728,1.000000075263846,-67.10718286806089
8.713811968,0.9998032052618103,-67.36748094965645
8.72265216,0.9996167184759197,-67.62526594250373
8.731491328,0.999450662406238,-67.88072855689235
8.74033152,0.9993138294776531,-68.13421958644467
8.749171712,0.9992134044499399,-68.38616332090754
8.75801088,0.9991549547030405,-68.63702765773752
8.766851072,0.9991416578317773,-68.88747172567312
8.77569024,0.9991741946593026,-69.1380686810224
8.784530432,0.9992510920831053,-69.3893971325715
8.793370624,0.9993680159232513,-69.64206504315764
8.802209792,0.9995189408669364,-69.89655193707152
8.811049984,0.9996959977408281,-70.1532580165689
8.819889152,0.999889557001291,-70.41242744033126
8.828729344,1.0000894650316352,-70.67426931802952
8.837569536,1.0002851097100132,-70.93878871559271
8.846408704,1.0004659757670653,-71.2058074561565
8.855248896,1.0006224013917686,-71.4751334197405
8.864088064,1.0007462459162977,-71.74636575264358
8.872928256,1.0008307375893517,-72.0189923156137
8.881768448,1.00087136437793,-72.29251061822961
8.890607616,1.0008658324297184,-72.56631821369693
8.899447808,1.0008144019196916,-72.83978925330072
8.908286976,1.0007198210907857,-73.11229279029723
8.917127168,1.000586976082723,-73.38337534879267
8.92596736,1.0004228859384723,-73.65248253116877
8.934806528,1.0002362400198817,-73.91933619279973
8.94364672,1.000036856868706,-74.18365195800303
8.952485888,0.9998354528687298,-74.44531317021273
8.96132608,0.9996426824652935,-74.70441766940546
8.970165248,0.999468739852848,-74.96109217525446
8.97900544,0.9993230341124109,-75.21567362399934
8.987845632,0.9992134322473538,-75.4685691676308
8.9966848,0.9991455911569537,-75.72031779577102
9.005524992,0.9991233651912557,-75.97149698761503
9.01436416,0.9991480951697663,-76.22269357287958
9.023204352,0.999218283374752,-76.47459975627268
9.032044544,0.9993305291496748,-76.72768008519422
9.040883712,0.9994787194785507,-76.98258077564914
9.049723904,0.9996550245835439,-77.23965194405957
9.058563072,0.9998501679516714,-77.49922971139074
9.067403264,1.0000537449084106,-77.76148855623356
9.076243456,1.000254906274488,-78.02648812057883
9.085082624,1.000442941340421,-78.29408411860842
9.093922816,1.0006078959558118,-78.56409089505335
9.102761984,1.000740930230156,-78.83611796100975
9.111602176,1.000834869534117,-79.10968522882465
9.120442368,1.0008848846592746,-79.38422236304952
9.129281536,1.0008880006626961,-79.65920632303522
9.138121728,1.0008440442045325,-79.93393658928775
9.146960896,1.0007554108974241,-80.20780377169852
9.155801088,1.0006266237747552,-80.48030528492419
9.16464128,1.000464410301958,-80.75090411921964
9.173480448,1.000277386149361,-81.01924579948418
9.18232064,1.0000755688989644,-81.28502917706412
9.191159808,0.9998695362161981,-81.54813025400493
9.2,0.9996702865664914,-81.80856724852171
9.208840192,0.9994883517729847,-82.0664937479366
9.21767936,0.9993337469579774,-82.32221872113028
9.226519552,0.9992145068772024,-82.576164245561
9.23535872,0.9991369429192154,-82.8287982762986
9.244198912,0.999105551398169,-83.0807450048146
9.253039104,0.9991217885953967,-83.33262231237615
9.261878272,0.9991851330491442,-83.58505317339682
9.270718464,0.9992921544977228,-83.83862267115445
9.279557632,0.9994372026956081,-84.09392438791042
9.288397824,0.9996125956991987,-84.3513878402786
9.297238016,0.9998090754989318,-84.61136689376107
9.306077184,1.0000160955201522,-84.87405498518294
9.314917376,1.0002226573494375,-85.13952550707809
9.323756544,1.000418164355061,-85.40772846730506
9.332596736,1.0005916710818075,-85.67838512314741
9.341436928,1.0007341550931528,-85.95119864943265
9.350276096,1.0008380416786942,-86.22568317607661
9.359116288,1.000897617473138,-86.5013112442903
9.367955456,1.0009099002522768,-86.77745431811381
9.376795648,1.0008738806087911,-87.05350748178851
9.38563584,1.0007915068018751,-87.32878662444195
9.394475008,1.0006671370021274,-87.60273871820871
9.4033152,1.0005072142735223,-87.87488358456038
9.412154368,1.0003202216023195,-88.14473920580807
9.42099456,1.0001161053697774,-88.4120325143037
9.429834752,0.9999055694735309,-88.67660128021637
9.43867392,0.9996998616638616,-88.93846755219126
9.447514112,0.9995100474313684,-89.19770652208929
9.45635328,0.9993460505629429,-89.45461990707747
9.465193472,0.9992168713681175,-89.70962988747729
9.47403264,0.9991293222924398,-89.96322909134824
9.482872832,0.999088171919835,-90.2159558976775
9.491713024,0.9990957062491017,-90.46854457865251
9.500552192,0.9991516546130531,-90.72151930490075
9.509392384,0.9992529366867785,-90.97561908414653
9.518231552,0.9993943449999334,-91.23132808948013
9.527071744,0.999568471702849,-91.48919392626502
9.535911936,0.9997659505942689,-91.74956222602619
9.544751104,0.9999763871630559,-92.01266737186354
