freq,mag,phase
6.0,1.0006317928672999,143.78059370244384
6.002286592,1.0007807959493138,143.62525281809687
6.004572672,1.0008801796656717,143.46820571676685
6.006859264,1.0009243684033398,143.31016713834552
6.009145344,1.0009105814987949,143.15196500702268
6.011431936,1.000839892740144,142.99444907629154
6.013718016,1.000716399535019,142.83839871261463
6.016004608,1.0005480847154173,142.68446803803437
6.018290688,1.00034537952309,142.53334391685877
6.02057728,1.0001213345493019,142.38535464126934
6.022863872,0.9998901101793386,142.2407288234308
6.025149952,0.9996663182559654,142.0994959089357
6.027436544,0.9994639792229035,141.96139362269287
6.029722624,0.999296126989132,141.82605492214697
6.032009216,0.9991734748263232,141.69288461637998
6.034295296,0.9991035834288508,141.5611922769528
6.036581888,0.9990913405510228,141.4301239998102
6.03886848,0.9991370707106307,141.2989187129389
6.04115456,0.9992382673077368,141.1667099792171
6.043441152,0.9993881582685123,141.03267677159562
6.045727232,0.9995777757070686,140.89625205408555
6.048013824,0.9997945673042996,140.75696137550247
6.050299904,1.000025022363252,140.61442951038396
6.052586496,1.0002546058609143,140.46862938231402
6.054872576,1.000468544857323,140.3196819206787
6.057159168,1.000653541117737,140.1678631651131
6.05944576,1.000797754464459,140.0137573513201
6.06173184,1.0008921509699868,139.8579068823418
6.064018432,1.000930472893079,139.70120209598667
6.066304512,1.000910500833202,139.54439349443666
6.068591104,1.0008334572790447,139.38835225267562
6.070877184,1.0007040534303573,139.23386988845476
6.073163776,1.0005306671413818,139.08165106781442
6.075450368,1.0003239516522158,138.93222781420752
6.077736448,1.0000973680349057,138.78598101026157
6.08002304,0.9998648236867075,138.6431484152473
6.08230912,0.9996414253067497,138.50370574239113
6.084595712,0.9994411507329157,138.3673868781064
6.086881792,0.9992767110461135,138.23379194875537
6.089168384,0.9991586960848944,138.10230407335393
6.091454464,0.9990945766972331,137.97219974900716
6.093741056,0.999088459463287,137.84268397635373
6.096027648,0.9991406217901329,137.7128727595207
6.098313728,0.9992479665047089,137.5819713817078
6.10060032,0.9994034573552846,137.44921586229012
6.1028864,0.9995975115388537,137.31393506198455
6.105172992,0.9998177421247637,137.17575492839555
6.107459072,1.0000500827726717,137.034327869154
6.109745664,1.0002799181494786,136.88954158905096
6.112032256,1.0004927002531991,136.74166166171068
6.114318336,1.0006748061160458,136.5909308720966
6.116604928,1.0008147505509377,136.43792747698097
6.118891008,1.0009036778367322,136.2833099015413
6.1211776,1.0009360272694425,136.1278615161856
6.12346368,1.0009097314336566,135.9724208987579
6.125750272,1.0008261503833071,135.8178489003378
6.128036352,1.000690885746876,135.6649106392468
6.130322944,1.0005122495023429,135.51429683133384
6.132609536,1.0003015758543494,135.36658004887883
6.134895616,1.0000722332242895,135.22208669000486
6.137182208,0.9998389280910039,135.08102842947096
6.139468288,0.9996160924766009,134.94333583109648
6.14175488,0.9994179804144457,134.80876610536285
6.14404096,0.999257357871018,134.67686327510984
6.146327552,0.9991443093434668,134.5470407621204
6.148614144,0.9990859395925495,134.41848745412244
6.150900224,0.9990861906201938,134.2904219703425
6.153186816,0.9991449718180091,134.16200082987984
6.155472896,0.9992586236320503,134.03235783191252
6.157759488,0.9994198708338811,133.9007616159179
6.160045568,0.9996185935526789,133.76663133857005
6.16233216,0.9998419483817512,133.62948412499037
6.16461824,1.0000762069049078,133.4890250775315
6.166904832,1.0003060149138816,133.34528737934582
6.169191424,1.0005172880771644,133.19837238988407
6.171477504,1.0006961133382852,133.04870869536288
6.173764096,1.000831717543455,132.8967731010018
6.176050176,1.0009151602069772,132.7433144982492
6.178336768,1.0009411271443576,132.58911830455415
6.180622848,1.0009081043726638,132.43504150883686
6.18290944,1.0008181271502843,132.28188988018147
6.18519552,1.0006767108798948,132.13046687016165
6.187482112,1.0004929616303746,131.9814609872039
6.189768704,1.0002783610319999,131.83538422363162
6.192054784,1.000046494784654,131.6925943154743
6.194341376,0.9998122204050799,131.55328071140067
6.196627456,0.999590200505524,131.41733597788712
6.198914048,0.9993947110916792,131.28446770571907
6.201200128,0.999237922605666,131.15421751751188
6.20348672,0.9991300243015894,131.02598631842312
6.205773312,0.999077921680789,130.89894504806017
6.208059392,0.9990847477931787,130.77228012390304
6.210345984,0.9991502203585598,130.64517362021584
6.212632064,0.999270210305154,130.51677776962353
6.214918656,0.9994371184208141,130.38631158065579
6.217204736,0.9996403605098686,130.25321384803115
6.219491328,0.9998670803650186,130.11703314779461
6.221777408,1.0001028097892772,129.97756267924092
6.224064,1.000332655063956,129.83477939775585
6.226350592,1.0005419375846518,129.68881511203105
6.228636672,1.000717503645744,129.54011365945428
6.230923264,1.00084836143403,129.3892390597093
6.233209344,1.0009259247751892,129.23691253294217
6.235495936,1.000945368834593,129.0839451074898
6.237782016,1.0009055523367367,128.9311556378178
6.240068608,1.0008088022038357,128.77941892935056
6.2423552,1.000661369360386,128.62947280459593
6.24464128,1.0004723594626959,128.48202833072997
6.246927872,1.000253899500885,128.33761273000553
6.249213952,1.0000199179839688,128.19650674619956
6.251500544,0.9997848318876252,128.0589109702147
6.253786624,0.9995638339030378,127.92462618794764
6.256073216,0.9993710467895484,127.79344574407486
6.258359296,0.9992185361972934,127.6648181486236
6.260645888,0.9991160024499571,127.53812032839967
6.26293248,0.9990702725614495,127.4125497046998
6.26521856,0.9990838815918408,127.28725033404599
6.267505152,0.9991563530300009,127.16140117010664
6.269791232,0.9992829127370552,127.0341286918649
6.272077824,0.9994555176326513,126.90474717261696
6.274363904,0.9996633620424281,126.7726610284745
6.276650496,0.9998930627908609,126.63741827023122
6.278937088,1.0001301564916918,126.49884345990645
6.281223168,1.0003596683911582,126.35692932381352
6.28350976,1.0005670595351877,126.21186637694814
6.28579584,1.0007389620876845,126.06411554734699
6.288082432,1.0008647757497549,125.91427221961412
6.290368512,1.0009362411704104,125.7630254253786
6.292655104,1.0009489672880822,125.61121359585705
6.294941184,1.0009021957006508,125.45970610893892
6.297227776,1.0007987360459714,125.30932526461957
6.299514368,1.0006450759885448,125.16084554978696
6.301800448,1.000450931779464,125.0149528438541
6.30408704,1.000228672000563,124.8721377255768
6.30637312,0.9999922464672926,124.73271246332884
6.308659712,0.9997568312628846,124.59674847540296
6.310945792,0.9995371798510178,124.46415165649118
6.313232384,0.9993473162484169,124.33460855005981
6.315518464,0.9991992680121592,124.20756601953354
6.317805056,0.999102428784991,124.08234266502018
6.320091648,0.9990632694303193,123.95818031000678
6.322377728,0.9990840581491677,123.83419329727332
6.32466432,0.9991634959137005,123.7095236585048
6.3269504,0.9992965622372871,123.58336966179711
6.329236992,0.9994748685932848,123.45501516740728
6.331523072,0.9996872080229056,123.3238268539157
6.333809664,0.9999198705368818,123.18949303548146
6.336096256,1.0001582705655288,123.0517505936473
6.338382336,1.0003872839172965,122.91067199361841
6.340668928,1.0005922774736673,122.76650975452394
6.342955008,1.0007603342423794,122.61961327473553
6.3452416,1.0008807947488074,122.47072856678011
6.34752768,1.0009460255624174,122.32051621436904
6.349814272,1.0009518597276321,122.16984896440822
6.352100352,1.0008978539884712,122.01959846557014
6.354386944,1.0007874252455244,121.87054135159292
6.356673536,1.0006274574014287,121.72350573225623
6.358959616,1.0004282297479214,121.57914002096747
6.361246208,1.000202377292062,121.43790536135312
6.363532288,0.9999639051154218,121.30008493465583
6.36581888,0.9997280761200844,121.16576974421945
6.36810496,0.9995100106345297,121.03480084735409
6.370391552,0.999323417209775,120.90682174016831
6.372678144,0.9991801478196576,120.78129729595899
6.374964224,0.9990894085390957,120.65754015817396
6.377250816,0.9990570054827295,120.53472749944929
6.379536896,0.9990848578659947,120.41201146697388
6.381823488,0.9991715331226667,120.2884677591899
6.384109568,0.999311404722004,120.16338352375247
6.38639616,0.9994953700378497,120.03593390741138
6.38868224,0.9997120744026502,119.9056352185788
6.390968832,0.999947528361744,119.77209777068944
6.393255424,1.0001870683005196,119.63518126078118
6.395541504,1.0004152121672623,119.49487305755439
6.397828096,1.0006177374200864,119.35148738919825
6.400114176,1.0007816388854658,119.20547288516008
6.402400768,1.0008965014074602,119.05750887444572
6.404686848,1.0009550445479045,118.90832250742163
6.40697344,1.0009537475117107,118.75875101841802
6.409260032,1.0008924599694446,118.60969991773698
6.411546112,1.000774903956206,118.4619572999124
6.413832704,1.000608838444814,118.3163267286384
6.416118784,1.0004044657630524,118.1734238801233
6.418405376,1.0001748244233102,118.03376632873103
6.420691456,0.9999345191118302,117.89750353783177
6.422978048,0.999698794369449,117.76479882673145
6.425264128,0.999482425617074,117.63541325082046
6.42755072,0.9992992435581665,117.50899837836296
6.429837312,0.999161103680665,117.38494930935052
6.432123392,0.9990766393227589,117.26259510262399
6.434409984,0.9990512639689295,117.14108371846929
6.436696064,0.9990865580139949,117.01954115145017
6.438982656,0.9991806375447987,116.89712599355552
6.441268736,0.9993270665024574,116.77297296772367
6.443555328,0.9995167773017779,116.6464623209802
6.44584192,0.9997379919646372,116.51694615062587
6.448128,0.999976155678027,116.38417576269822
6.450414592,1.0002164759030365,116.24798529204857
6.452700672,1.0004437847279404,116.10840081622749
6.454987264,1.000643379729247,115.9657741988451
6.457273344,1.000802755651209,115.8205810153802
6.459559936,1.0009118094571123,115.67348154975814
6.461846016,1.0009637101329196,115.52525018720206
6.464132608,1.0009548842583051,115.37677201219148
6.4664192,1.000886151455942,115.22887480124572
6.46870528,1.0007615979279818,115.0824349414526
6.470991872,1.0005892072090423,114.9381676259479
6.473277952,1.0003797644996344,114.79673326744293
6.475564544,1.0001467552548673,114.65857733555033
6.477850624,0.9999045829869208,114.52389902846336
6.480137216,0.9996690121793992,114.39274989861659
6.482423296,0.9994546817900223,114.2648967344107
6.484709888,0.9992754051021967,114.13997666547333
6.48699648,0.9991425560796989,114.01736957507754
6.48928256,0.9990645719517509,113.89637082862063
6.491569152,0.9990464615579718,113.77610704276694
6.493855232,0.9990895227549704,113.65568956264188
6.496141824,0.9991908510859402,113.53428467892829
6.498427904,0.9993441663504209,113.4110758822383
6.500714496,0.9995395730812758,113.28536846170097
6.503001088,0.9997648918177143,113.15661175183266
6.505287168,1.000005657730469,113.02457495989154
6.50757376,1.0002466235255474,112.88898651582481
6.50985984,1.0004726225362435,112.75010853969331
6.512146432,1.0006691584575795,112.60821991221121
6.514432512,1.0008238692249896,112.46377536710901
6.516719104,1.0009269086870485,112.31750180201142
6.519005184,1.0009715800619894,112.17021794028783
6.521291776,1.0009552355800262,112.02275852330625
6.523578368,1.000878850669924,111.87600032898939
6.525864448,1.0007471821004634,111.73081567799696
6.52815104,1.0005683504275946,111.58792190626427
6.53043712,1.0003540541389069,111.44790019425652
6.532723712,1.0001175106695086,111.3112099543162
6.535009792,0.9998739691306724,111.17804330345564
6.537296384,0.9996387963563323,111.04843141957579
6.539582976,0.9994268174280182,110.92206337633235
6.541869056,0.9992517013922623,110.79862512949326
6.544155648,0.9991245565657042,110.67740134501891
6.546441728,0.9990532898732731,110.5576903705547
6.54872832,0.9990426988712531,110.4385924355021
6.5510144,0.9990934451730391,110.31929675256326
6.553300992,0.9992023384892207,110.19884918160105
6.555587072,0.9993623336478239,110.07648402595952
6.557873664,0.9995634628409906,109.95152367063764
6.560160256,0.9997928794670334,109.82348635955931
6.562446336,1.0000360852748431,109.69205268054807
6.564732928,1.0002774552368303,109.55711240958442
6.567019008,1.00050192487261,109.41883846186911
6.5693056,1.0006950339501341,109.27757949215484
6.57159168,1.0008446889231744,109.13387629988685
6.573878272,1.0009413597698287,108.98839887075658
6.576164864,1.0009786956410833,108.84201489617777
6.578450944,1.0009545324436877,108.69555585932005
6.580737536,1.0008704590854338,108.54990646549193
6.583023616,1.000731411123211,108.40595075570288
6.585310208,1.000546533559925,108.26436470136228
6.587596288,1.0003272288351375,108.12576280561183
6.58988288,1.0000875209270417,107.99051727467312
6.59216896,0.9998426590817064,107.85886861422605
6.594455552,0.9996080457094896,107.73070571695713
6.596742144,0.9993987956491314,107.60583423973934
6.599028224,0.9992280450860606,107.48381315513208
6.601314816,0.9991067123378452,107.36392404018899
6.603600896,0.9990425173559754,107.2454294037731
6.605887488,0.9990396566868347,107.1274872843824
6.608173568,0.9990982978327364,107.00918015147974
6.61046016,0.9992147757741592,106.8896652265348
6.612746752,0.9993817473787515,106.76805018670443
6.615032832,0.9995884432411245,106.6438186925062
6.617319424,0.9998218358973566,106.51639368126021
6.619605504,1.000067193867317,106.3855431983332
6.621892096,1.0003088002350535,106.251178668454
6.624178176,1.0005313635589852,106.11347893449093
6.626464768,1.0007208359161317,105.97281680426165
6.628750848,1.000865234712472,105.82978429751878
6.63103744,1.0009551234036531,105.68507538990322
6.633324032,1.0009849850209644,105.53954708911307
6.635610112,1.0009529995703115,105.394043275085
6.637896704,1.0008608988087129,105.24950986021042
6.640182784,1.0007146867040715,105.10672318406033
6.642469376,1.000523521754925,104.96641539277016
6.644755456,1.0002994961743665,104.82919920984187
6.647042048,1.0000567628601609,104.69538571024383
6.649328128,0.9998108195853646,104.56515200664532
6.65161472,0.9995771827743634,104.43844507993157
6.653901312,0.9993706985699371,104.31500936595008
6.656187392,0.9992046119104961,104.19431948337764
6.658473984,0.9990894729178533,104.07572552725024
6.660760064,0.9990327110887411,103.95844799908726
6.663046656,0.9990376951432242,103.84155274115967
6.665332736,0.9991044731571936,103.72418880807582
6.667619328,0.9992285684722778,103.60547954731783
6.66990592,0.9994023252087194,103.48466450060877
6.672192,0.999614550766251,103.36103031993316
6.674478592,0.9998517882553347,103.23418963413533
6.676764672,1.0000991963793238,103.10384297495725
6.679051264,1.0003407042065484,102.97000193549391
6.681337344,1.0005611387697522,102.83283107821686
6.683623936,1.0007466423458538,102.6927469819021
6.685910016,1.0008853157590973,102.55031612465604
6.688196608,1.0009682642234223,102.40633149417653
6.6904832,1.000990518490455,102.26162200995621
6.69276928,1.0009502273614426,102.11708738112955
6.695055872,1.0008501852904759,101.9735914999727
6.697341952,1.0006966690668682,101.83196209843103
6.699628544,1.0004992693894956,101.69292693888542
6.701914624,1.000270591121406,101.55700770877871
6.704201216,1.000024940123488,101.42460114916766
6.706487808,0.9997781765861766,101.29577188090134
6.708773888,0.9995457965790119,101.17052227076813
6.71106048,0.9993425090898941,101.04843172105053
6.71334656,0.9991814200521657,100.92907508808935
6.715633152,0.9990728144451476,100.81171110342227
6.717919232,0.9990233707234036,100.69556009161262
6.720205824,0.9990366276894741,100.57970238623608
6.722491904,0.9991115513310546,100.46322707423624
6.724778496,0.9992434408810723,100.345286365883
6.727065088,0.9994239837871647,100.22511401255632
6.729351168,0.9996415769721854,100.10209107529359
6.73163776,0.9998825829912811,99.9757265235621
6.73392384,1.0001316153567825,99.8458760445662
6.736210432,1.000372762299986,99.71246327852104
6.738496512,1.0005910057396612,99.57573929482756
6.740783104,1.0007721668236,99.43618358622466
6.743069696,1.0009048916916075,99.29435104574357
6.745355776,1.0009807983793795,99.15106234645845
6.747642368,1.0009949667730278,99.00714812862105
6.749928448,1.0009464960295156,98.86348145541082
6.75221504,1.000838267394707,98.72103159787709
6.75450112,1.0006773838012553,98.58053812233655
6.756787712,1.0004737656791507,98.4427422000088
6.759073792,1.0002405549163065,98.30811972178905
6.761360384,0.9999924414248227,98.17705607153677
6.763646976,0.999745012837785,98.04964686750615
6.765933056,0.99951402118452,97.92574281277713
6.768219648,0.9993144577383708,97.80499540832881
6.770505728,0.999158564257719,97.6868904676769
6.77279232,0.9990566573123901,97.57072709898478
6.7750784,0.9990151422861144,97.45562904501763
6.777364992,0.9990367194825878,97.34072920592865
6.779651584,0.9991199204575936,97.2250955211448
6.781937664,0.9992596058671134,97.10784186971276
6.784224256,0.9994469226137445,96.98830518600604
6.786510336,0.9996698563127234,96.86575187806682
6.788796928,0.9999143948960262,96.73987288772219
6.791083008,1.0001648838373092,96.61040192958379
6.7933696,1.0004054641742397,96.47738836131926
6.79565568,1.0006209774233263,96.341107942844
6.797942272,1.0007975131091997,96.20202967907332
6.800228864,1.0009240377235458,96.06074941628844
6.802514944,1.0009924805082715,95.91809007649299
6.804801536,1.0009984327236083,95.77491997107413
6.807087616,1.0009414509308698,95.6321656954227
6.809374208,1.0008251479808237,95.49069931033414
6.811660288,1.0006569008660868,95.35130098707452
6.81394688,1.0004473522664992,95.21470968855785
6.81623296,1.0002097464262394,95.08138089848913
6.818519552,0.9999591344023149,94.95163229468147
6.820806144,0.9997112441988885,94.82554585821904
6.823092224,0.9994822430737682,94.70297654480893
6.825378816,0.9992863348519658,94.5835561168673
6.827664896,0.9991361519265952,94.46664343927353
6.829951488,0.9990412956405416,94.35163098389323
6.832237568,0.9990077308837126,94.23752832448669
6.83452416,0.9990377556050961,94.12350350657819
6.836810752,0.9991293882573338,94.00864820710623
6.839096832,0.9992769541498494,93.89205493730776
6.841383424,0.9994709659073211,93.77301996754385
6.843669504,0.999699193933004,93.6509583084039
6.845956096,0.9999469950616415,93.52544551992813
6.848242176,1.000198764460427,93.39631667761311
6.850528768,1.0004384263878516,93.26366677698225
6.852814848,1.0006509788875235,93.12777211788587
6.85510144,1.0008225635548642,92.98908019982053
6.857388032,1.0009425496417543,92.84831994883248
6.859674112,1.0010032821170511,92.70627825239058
6.861960704,1.0010007974060695,92.56382416824677
6.864246784,1.0009352533221827,92.421956632482
6.866533376,1.0008108024432805,92.2814093614308
6.868819456,1.000635171894474,92.14310697660812
6.871106048,1.0004197494441736,92.00768423574354
6.87339264,1.0001778099286867,91.87560797314521
6.87567872,0.9999249052008845,91.74716359193918
6.877965312,0.9996771423907359,91.62238943936227
6.880251392,0.9994501177686044,91.50111375328395
6.882537984,0.9992584051562315,91.38292066786138
6.884824064,0.9991141283060806,91.2672039201759
6.887110656,0.9990266005539032,91.15324260183495
6.889396736,0.9990012988409185,91.04010943330067
6.891683328,0.9990399659353051,90.92691544384901
6.89396992,0.9991402294043599,90.81274430476276
6.896256,0.99929563007273,90.69675489958371
6.898542592,0.999496270629867,90.57819322849775
6.900828672,0.9997295376760282,90.45651454895756
6.903115264,0.9999804808437972,90.33133452079883
6.905401344,1.0002332214394447,90.2024982657386
6.907687936,1.0004717457214847,90.07014767967576
6.909974528,1.0006808613710176,89.93453619318446
6.912260608,1.0008473481012854,89.79627802703381
6.9145472,1.0009605123120024,89.65597323334975
6.91683328,1.0010132164158823,89.5144880041652
6.919119872,1.0010020890830722,89.37278195845047
6.921405952,1.000927915384446,89.23167574480772
6.923692544,1.000795122108384,89.09209944754234
6.925978624,1.000612310355975,88.95485726328674
