freq,mag,phase
6.0,0.9993393767504456,-52.610748614298245
6.00791296,0.9995049582686278,-52.93746564455155
6.01582592,0.99969819943061,-53.266645022578196
6.02373888,0.9999075961857496,-53.59864584056932
6.03165184,1.0001222391939697,-53.93358174038727
6.0395648,1.0003302735246222,-54.27143902253825
6.04747776,1.0005205176306968,-54.612013444592435
6.05539072,1.0006827469412467,-54.95509190028638
6.06330368,1.0008082452825557,-55.300182704131736
6.07121664,1.0008902336761147,-55.64674263396129
6.0791296,1.0009243812824615,-55.994182047887044
6.08704256,1.0009084286482197,-56.341871626026766
6.09495552,1.0008435981673929,-56.68910650163762
6.10286848,1.0007331342216201,-57.03526253107798
6.11078144,1.0005830525032882,-57.37977353078206
6.1186944,1.0004013146728625,-57.722204049869404
6.12660736,1.000197658675915,-58.062100410655624
6.13452032,0.9999829167836107,-58.39932455257867
6.14243328,0.9997687236508604,-58.73372083597148
6.15034624,0.9995668004799513,-59.06550871443197
6.1582592,0.9993877833034788,-59.394764446230276
6.16617216,0.9992414206982201,-59.721966311692285
6.17408512,0.9991357557571114,-60.047522949417356
6.18199808,0.9990764384614544,-60.372104936724725
6.18991104,0.9990667236813136,-60.69632697146984
6.197824,0.9991071473242495,-61.02081065867461
6.20573696,0.9991956343590752,-61.34627775035324
6.21364992,0.9993274573146192,-61.67330483368301
6.22156288,0.9994954873630895,-62.00241688021854
6.22947584,0.9996907239871246,-62.33403082183824
6.2373888,0.9999026702323324,-62.668508198568595
6.24530176,1.0001199107155376,-63.00590938978421
6.25321472,1.0003307205429628,-63.34628914948939
6.26112768,1.0005238030497179,-63.6894958317676
6.26904064,1.0006887843672732,-64.03513881534268
6.2769536,1.0008167213818533,-64.38286600151135
6.28486656,1.000900541945821,-64.73212566529091
6.29277952,1.0009360517152917,-65.08226814055332
6.30069248,1.000921081828255,-65.43261527593657
6.30860544,1.0008563798165844,-65.78251529341587
6.3165184,1.00074549150586,-66.13140468563351
6.32443136,1.0005941023477634,-66.47863075644871
6.33234432,1.0004105359404882,-66.82371323044967
6.34025728,1.0002044941814425,-67.16625125160579
6.34817024,0.9999871917967735,-67.50608755651866
6.3560832,0.9997702068940701,-67.84307900183833
6.36399616,0.9995652925757673,-68.17738235453461
6.37190912,0.9993833765657533,-68.50915666815693
6.37982208,0.999234349975599,-68.8388240797795
6.38773504,0.9991263771636413,-69.1668308484822
6.395648,0.9990651540573751,-69.4938148317014
6.40356096,0.9990541348065135,-69.82038107503696
6.41147392,0.9990939866023538,-70.14723983158075
6.41938688,0.9991826081711669,-70.47503255803281
6.42729984,0.9993151212030368,-70.80443638976642
6.4352128,0.9994846797974254,-71.13589885533237
6.44312576,0.999681942426937,-71.46994876679868
6.45103872,0.9998963220303089,-71.80682596077841
6.45895168,1.000116381760183,-72.14673269749287
6.46686464,1.000330246773627,-72.48959814367407
6.4747776,1.000526334538448,-72.83532221642054
6.48269056,1.0006943615163268,-73.18354542689688
6.49060352,1.0008249225342976,-73.53389324958381
6.49851648,1.0009112300402048,-73.88577451885307
6.50642944,1.0009482814667057,-74.23857091314414
6.5143424,1.00093434092293,-74.59160399145618
6.52225536,1.0008700647775302,-74.94426792177006
6.53016832,1.0007587510091551,-75.29580383888143
6.53808128,1.0006063791632058,-75.64569444770403
6.54599424,1.000421162689061,-75.99342552697024
6.5539072,1.0002128277604416,-76.33862450914259
6.56182016,0.9999927587629656,-76.68107193459076
6.56973312,0.9997726444729763,-77.02066143661786
6.57764608,0.999564427032608,-77.35746024816405
6.58555904,0.9993793736447811,-77.69170520606588
6.593472,0.9992275240203372,-78.02381312513151
6.60138496,0.9991167360656532,-78.35421727586642
6.60929792,0.9990533054241075,-78.68354463315784
6.61721088,0.9990408272874856,-79.0124454427837
6.62512384,0.9990799172405663,-79.34163098216287
6.6330368,0.9991684548322445,-79.67171638382253
6.64094976,0.9993015134984348,-80.00342962038819
6.64886272,0.9994726217339385,-80.33719102727558
6.65677568,0.9996718567696417,-80.6735801463003
6.66468864,0.9998887843146547,-81.01283145166103
6.6726016,1.0001119316206264,-81.35512655993416
6.68051456,1.0003291594128036,-81.70046267550617
6.68842752,1.0005286181328512,-82.04866542821706
6.69634048,1.0006997898216188,-82.39941654399414
6.70425344,1.000833346944134,-82.75230473957842
6.7121664,1.0009221279048506,-83.10678960223942
6.72007936,1.0009613225301044,-83.46221652330107
6.72799232,1.0009487123738696,-83.81793459905653
6.73590528,1.0008850449726197,-84.17324864498913
6.74381824,1.0007734601665734,-84.52745487856824
6.7517312,1.0006202763657677,-84.87998190566938
6.75964416,1.0004331227271832,-85.23036344383486
6.76755712,1.0002226316430383,-85.57817927299115
6.77547008,0.9999995794084992,-85.92321149779035
6.78338304,0.9997762574021475,-86.2652841188017
6.791296,0.999564631462695,-86.60456583098188
6.79920896,0.999376027164816,-86.94127237891416
6.807121408,0.999220749080556,-87.2757276467535
6.815034368,0.9991070404581475,-87.60847982863113
6.822947328,0.9990413119542182,-87.94012298493158
6.830860288,0.9990268596733946,-88.27128772520206
6.838773248,0.9990647564911997,-88.60269850333326
6.846686208,0.9991529251499934,-88.93505934472864
6.854599168,0.9992867472900336,-89.26896347092959
6.862512128,0.9994588728242385,-89.60504133243398
6.870425088,0.9996603194902824,-89.94366555864175
6.878338048,0.9998800047466915,-90.28519459676413
6.886251008,1.000106436041917,-90.6298129419655
6.894163968,1.0003268958057074,-90.97750842489505
6.902076928,1.0005301036337328,-91.3281415945486
6.909989888,1.000704910971026,-91.6813675018887
6.917902848,1.0008417520123516,-92.03675984530224
6.925815808,1.0009334151927638,-92.39379179297059
6.933728768,1.000975013589219,-92.75179900066097
6.941641728,1.0009639992588597,-93.11007537820086
6.949554688,1.0009011293819883,-93.46801634664034
6.957467648,1.0007896049179297,-93.82484009420939
6.965380608,1.0006354590347855,-94.18000787027559
6.973293568,1.0004467410286497,-94.53296307863472
6.981206528,1.000233637821207,-94.88333177001735
6.989119488,1.0000077012462985,-95.23085709854007
6.997032448,0.9997808670848424,-95.57544894520666
7.004945408,0.9995655311127105,-95.91714083403635
7.012858368,0.9993731110162779,-96.25624216543754
7.020771328,0.9992141691444375,-96.59300169026588
7.028684288,0.999097207380863,-96.92804610939584
7.036597248,0.9990285530802261,-97.26189373219637
7.044510208,0.9990120147913112,-97.5952733443922
7.052423168,0.9990485485738826,-97.92884754399495
7.060336128,0.9991362229501372,-98.26333530118066
7.068249088,0.9992704323887711,-98.5994031507895
7.076162048,0.9994437962155949,-98.93759773828923
7.084075008,0.9996472506846806,-99.27839445851444
7.091987968,0.9998696644829737,-99.62212347080583
7.099900928,1.0000993568375336,-99.9689802793092
7.107813888,1.0003237342388005,-100.31895485487685
7.115726848,1.0005308599872047,-100.67188438766529
7.123639808,1.0007095601736555,-101.02750961893649
7.131552768,1.000850164809975,-101.38532100917435
7.139465728,1.000945116724332,-101.74481391227081
7.147378688,1.0009893034163337,-102.10533037007568
7.155291648,1.000980203599403,-102.46617890836721
7.163204608,1.0009184175682273,-102.8266299515832
7.171117568,1.0008070834651677,-103.18601170019704
7.179030528,1.000652085754167,-103.5437174654883
7.186943488,1.0004618345480483,-103.89919695262287
7.194856448,1.000246239333734,-104.25205854533269
7.202769408,1.0000170658460295,-104.6020706728232
7.210682368,0.9997866221488466,-104.94904244422543
7.218595328,0.9995672203081626,-105.29311878872906
7.226508288,0.9993707966657877,-105.63447603409318
7.234421248,0.9992077578538946,-105.9734977470501
7.242334208,0.9990870564616864,-106.31069817992895
7.250247168,0.9990152656314248,-106.64671345569464
7.258160128,0.9989963231799475,-106.98215216731337
7.266073088,0.9990310625493032,-107.31780305801331
7.273986048,0.9991181434419487,-107.65432882620858
7.281899008,0.9992524898241134,-107.99241444946271
7.289811968,0.9994272113153284,-108.3326580055504
7.297724928,0.999632736646676,-108.67551956320602
7.305637888,0.9998580921514967,-109.02133023397458
7.313550848,1.000091365626438,-109.37034052038844
7.321463808,1.0003196831866943,-109.72246276647904
7.329376768,1.0005310001774395,-110.0776230763664
7.337289728,1.0007139097811841,-110.43550573225733
7.345202688,1.0008585822921465,-110.79564776487472
7.353115648,1.0009572266695572,-111.15750821081411
7.361028608,1.00100441942945,-111.52042635763026
7.368941568,1.0009975536646205,-111.8836731046504
7.376854528,1.0009370312236887,-112.24662223957118
7.384767488,1.000826055290773,-112.60848632039806
7.392680448,1.000670397890358,-112.96864990343336
7.400593408,1.0004784096266306,-113.3265922946864
7.408506368,1.0002602957776234,-113.68189112708006
7.416419328,1.000027893001386,-114.03425806602792
7.424332288,0.9997935469715203,-114.38355798793674
7.432245248,0.9995698836491964,-114.72985071824404
7.440158208,0.9993689419608567,-115.07342478783339
7.448071168,0.9992016359778844,-115.4145918551872
7.455984128,0.9990769183032701,-115.7538946734377
7.463897088,0.9990016265556023,-116.09188431405174
7.471810048,0.9989797600611308,-116.42932400259379
7.479723008,0.9990127974205981,-116.76689108835093
7.487635968,0.9990987493974596,-117.10535750702218
7.495548928,0.9992333353708088,-117.44531931809192
7.503461888,0.9994090391859839,-117.7874814707301
7.511374848,0.9996167642422741,-118.13229089554632
7.519287808,0.9998451009455304,-118.48005554766495
7.527200768,1.000082051982407,-118.83102283243055
7.535113728,1.0003147314988934,-119.18521374116573
7.543026688,1.000530517419092,-119.54245044875304
7.550939648,1.0007181492852055,-119.90249767745385
7.558852608,1.0008672169676769,-120.26483140692385
7.566765568,1.0009697859680335,-120.62895157814317
7.574678528,1.0010203239340496,-120.99417110641086
7.582591488,1.0010159548273745,-121.35979621300166
7.590504448,1.0009570424614433,-121.72507193958238
7.598417408,1.0008465896974739,-122.08931665296623
7.606330368,1.0006903221100873,-122.45185037386258
7.614243328,1.0004967213532743,-122.81213039554065
7.622156288,1.0002761012961257,-123.16972658786707
7.630069248,1.0000401791870763,-123.52434926698828
7.637982208,0.9998017970272834,-123.87587731054737
7.645895168,0.9995735121945555,-124.2243450979552
7.653808128,0.9993677728890782,-124.57002306934164
7.661721088,0.9991956887602357,-124.91319354866393
7.669634048,0.9990665356927269,-125.25445009284024
7.677547008,0.9989873996916006,-125.59434810336512
7.685459968,0.9989624198006459,-125.93361240172509
7.693372928,0.9989932502360354,-126.27298649868024
7.701285888,0.9990780703240079,-126.61322821782213
7.709198848,0.9992125076785695,-126.95495201754633
7.717111808,0.9993894639288565,-127.29885695397738
7.725024768,0.9995992671418686,-127.64542031557866
7.732937728,0.9998308311983231,-127.99500158666832
7.740850688,1.0000715978538788,-128.3478017051597
7.748763648,1.0003087353300333,-128.7038817443545
7.756676608,1.000529450156137,-129.06308875863354
7.764589568,1.000721983769131,-129.42514510506854
7.772502528,1.0008759030898193,-129.78954956070174
7.780415488,1.0009828335292426,-130.1558190510497
7.788328448,1.0010370880483666,-130.5232116311279
7.796241408,1.001035645241027,-130.89102169219984
7.804154368,1.0009784840882154,-131.25855383538894
7.812067328,1.000868657242345,-131.62504924357353
7.819980288,1.000711960087583,-131.98981861288303
7.827893248,1.0005167351774054,-132.3523229367031
7.835806208,1.0002933887646546,-132.712143145125
7.843719168,1.0000539782351874,-133.0689416058917
7.851632128,0.999811083658737,-133.42254687864104
7.859545088,0.9995780317817115,-133.77306451792006
7.867458048,0.9993671701531346,-134.1206524218436
7.875371008,0.9991899933108118,-134.4657188226425
7.883283968,0.9990560622373553,-134.80878626256006
7.891196928,0.9989725560865218,-135.15042759156609
7.899109888,0.9989441461604117,-135.49137658813845
7.907022848,0.998972494703264,-135.8323851958003
7.914935808,0.9990559214139692,-136.17420958406677
7.922848768,0.9991902212262838,-136.5175516259441
7.930761728,0.9993681681641997,-136.8630519931685
7.938674688,0.9995801888442667,-137.21121173444388
7.946587648,0.9998149467536677,-137.5624264972334
7.954500608,1.0000598160824086,-137.9169208850737
7.962413568,1.0003017395052558,-138.2747314173635
7.970326528,1.0005277379258946,-138.63573001154285
7.978239488,1.0007255319918582,-138.99962403958565
7.986152448,1.0008845356946232,-139.36598221902906
7.994065408,1.0009962396331575,-139.73420528738797
8.001978368,1.0010545018510122,-140.10363877223168
8.009891328,1.001056262385554,-140.4735374139725
8.017804288,1.0010011640833096,-140.8431626083445
8.025717248,1.0008922247362926,-141.21177250858253
8.033630208,1.0007351888423959,-141.57867281132894
8.041543168,1.0005382928932356,-141.94328596454395
8.049456128,1.000312238056682,-142.3051591930844
8.057369088,1.0000690158748886,-142.66395257967866
8.065282048,0.9998215808699474,-143.0195523420756
8.073195008,0.999583266188869,-143.37192424188336
8.081107968,0.9993670165099933,-143.7213503636417
8.089020928,0.9991842987551341,-144.06814589719073
8.096933888,0.9990451676299482,-144.4128405313853
8.104846848,0.9989570654770381,-144.7560568356505
8.112759808,0.9989249644630553,-145.09853110578896
8.120672768,0.99895039316443,-145.44102276850725
8.128585728,0.999032315273626,-145.7842836206537
8.136498688,0.9991662534879756,-146.1290202203559
8.144411648,0.9993452112945047,-146.47591099127732
8.152324608,0.9995594631910227,-146.82550936430013
8.160237568,0.9997975457543156,-147.17817409336544
8.168150528,1.000046849112665,-147.53416305505843
8.176063488,1.0002939058789446,-147.89352737520025
8.183976448,1.0005253754859327,-148.25612869793517
8.191889408,1.0007288197457,-148.62174655641633
8.199802368,1.0008934198453108,-148.98982497383292
8.207715328,1.001010259143168,-149.3598787362772
8.215628288,1.0010730118431233,-149.73116792972243
8.223541248,1.0010781306504042,-150.10302866418888
8.231454208,1.0010253778016376,-150.47461662904638
8.239367168,1.0009175352332895,-150.84518535972146
8.247280128,1.0007602284919173,-151.21406868217053
8.255193088,1.000561732312975,-151.5806576450041
8.263106048,1.000332809291208,-151.94442400685668
8.271019008,1.000085555812615,-152.305091405519
8.278931968,0.9998332552077113,-152.66246499306925
8.286844928,0.9995895157662033,-153.01659279205202
8.294757888,0.9993673837485726,-153.36766177351234
8.302670848,0.9991787851139674,-153.71603475358293
8.310583808,0.9990340040292587,-154.06216151876626
8.318496768,0.998940914840501,-154.4068457916918
8.326409728,0.9989045203654393,-154.75063102883217
8.334322688,0.9989270186020074,-155.09436483696405
8.342235648,0.9990070995413952,-155.43885957253025
8.350148608,0.9991406064996882,-155.78482015113954
8.358061568,0.9993204368132741,-156.13295619406767
8.365974528,0.9995370336021557,-156.48373474654224
8.373887488,0.9997786805315299,-156.83767594975805
8.381800448,1.000032479759057,-157.1949724763869
8.389713408,1.0002848193444638,-157.55569815564508
8.397626368,1.0005221968585487,-157.9197293925783
8.405538816,1.0007317150310642,-158.2868239320224
8.413451776,1.0009023087953397,-158.6565046373415
8.421364736,1.0010246234470583,-159.02817746182214
8.429277696,1.0010921697103758,-159.4011929040923
8.437190656,1.0011010795980075,-159.77478323548522
8.445103616,1.0010508940431462,-160.1481817812539
8.453016576,1.0009443034825483,-160.520565341239
8.460929536,1.0007867712974778,-160.89126096938173
8.468842496,1.0005866893682083,-161.25963340578724
8.476755456,1.0003547856641548,-161.62518618156437
8.484668416,1.0001033439089144,-161.98756627116043
8.492581376,0.9998459442025949,-162.3465676860657
8.500494336,0.9995963784536426,-162.70225355590043
8.508407296,0.999367957940195,-163.05479879733286
8.516320256,0.9991731022373297,-163.40453512715374
8.524233216,0.9990223085648833,-163.75198967613267
8.532146176,0.9989238624625261,-164.09781829959627
8.540059136,0.9988829586537896,-164.4427624986953
8.547972096,0.9989020932222904,-164.78759458543138
8.555885056,0.9989800900386395,-165.1331230246114
8.563798016,0.9991130860605277,-165.48008050115862
8.571710976,0.9992938120582737,-165.8291856357897
8.579623936,0.9995127250665202,-166.18101280578014
8.587536896,0.9997580320946354,-166.53595835621184
8.595449856,1.0000166743600987,-166.89434113092085
8.603363328,1.0002746841536607,-167.25622676248852
8.611275776,1.000518284682492,-167.62152013624473
8.619189248,1.0007343994766305,-167.98988504595317
8.627101696,1.000911376990407,-168.36097587211177
8.635015168,1.00103965860383,-168.7341167389437
8.642927616,1.0011122471511742,-169.10865941865933
8.650841088,1.0011252910016442,-169.48383758752206
8.658753536,1.0010779749650738,-169.8588492000031
8.666667008,1.0009726688115128,-170.2328733318933
8.674579456,1.000815018393866,-170.60521653987345
8.682492928,1.0006132713556488,-170.97520686473771
8.690405376,1.000378216708931,-171.34235447685757
8.698318848,1.0001225267232494,-171.70624649509688
8.706231296,0.9998596333805385,-172.0667300099375
8.714144768,0.999603872937022,-172.42378454963804
8.722057216,0.9993688069624178,-172.7776365873066
8.729970688,0.9991672589533368,-173.1285526486862
8.737883136,0.9990101394999633,-173.47711149387223
8.745796608,0.9989056808773658,-173.8239395062195
8.753709056,0.9988600338904491,-174.1697983197938
8.761622528,0.9988754678472133,-174.51549007428358
8.769534976,0.9989513341273855,-174.86183621776604
8.777448448,0.9990835115401692,-175.20957887966017
8.785360896,0.9992651650123417,-175.55945982193674
8.793274368,0.9994865904678341,-175.91206438936172
8.801186816,0.999735755296569,-176.2678583729793
8.809100288,0.999999450747384,-176.62711405375242
8.817012736,1.0002635205370098,-176.98993849514858
8.824926208,1.0005137380939695,-177.35625537932526
8.832838656,1.0007367581818583,-177.72574047812458
8.840752128,1.0009205369764325,-178.0979726596445
8.848664576,1.0010551767753522,-178.4723997091904
8.856578048,1.0011333910689684,-178.84829740982008
8.864490496,1.0011507861214237,-179.2248845540814
8.872403968,1.001106535978068,-179.60132553455614
8.880316416,1.0010028704296283,-179.97682474042278
8.888229888,1.0008450997378797,179.64936877344917
8.896142336,1.0006416581590034,179.27790384525647
8.904055808,1.0004034393692134,178.90937476489026
8.911968256,1.0001429865161455,178.54409057763672
8.919881728,0.9998745113902253,178.18234647100337
8.927794176,0.9996120412744482,177.82409719192276
8.935707648,0.9993700370988834,177.46917853440644
8.943620096,0.9991612955669779,177.11726014978362
8.951533568,0.9989972413400737,176.7678208346987
8.959446016,0.9988867225298435,176.420194307819
8.967359488,0.9988357878778975,176.07361539279023
8.975271936,0.9988472755092896,175.7272956970482
8.983185408,0.9989206929986754,175.3803852142586
8.991097856,0.9990521901045315,175.03208635085173
8.999011328,0.9992346690811027,174.6816386067891
9.006923776,0.9994586733816992,174.32848197679613
9.014837248,0.999711884499438,173.97207818323676
9.022749696,0.9999808899955653,173.61216186499567
9.030663168,1.000251406261656,173.24861554290857
9.038575616,1.000508731711504,172.88152352421494
9.046489088,1.0007391409066595,172.51113991866293
9.054401536,1.0009301888108295,172.13787020348352
9.062315008,1.0010714715090514,171.76241089555083
9.070227456,1.0011556072405523,171.38536136524476
9.078140928,1.0011778834145644,171.00757091466022
9.086053376,1.0011368921806805,170.62987175510796
9.093966848,1.001034939564065,170.2530727785463
9.101879296,1.0008770913986835,169.87796705323453
9.109792768,1.0006719143331824,169.50524395747837
9.117705216,1.0004302458806122,169.13546630816612
9.125618688,1.0001650986517803,168.76903790086507
9.133531136,0.9998904277983733,168.4061881705816
9.141444608,0.9996210931196186,168.0469297802676
9.149357056,0.9993715988879922,167.69111915594075
9.157270528,0.9991551892705913,167.33842833188936
