freq,mag,phase
6.0,0.9999472686554607,-171.68689197530546
6.007604736,0.9999559650170046,-172.1414693739636
6.01520896,0.9999667720101679,-172.59617035358593
6.022813696,0.9999794435248309,-173.0510228010548
6.030418432,0.9999930713679965,-173.50603222196767
6.038022656,1.0000071230128147,-173.9612295751257
6.045627392,1.0000206347484621,-174.41662676989841
6.053232128,1.000033136638751,-174.87219163844742
6.060836352,1.0000439143526385,-175.32788120800993
6.068441088,1.0000522649037062,-175.7837161152332
6.076045824,1.0000577933088397,-176.23961208983357
6.083650048,1.0000602329864774,-176.6956031928043
6.091254784,1.0000594214784335,-177.15155137467022
6.09885952,1.0000553968224206,-177.60750439557876
6.106463744,1.0000483813899175,-178.06333470259935
6.11406848,1.0000387947657765,-178.51910147069415
6.121673216,1.0000270821626565,-178.97467872542725
6.12927744,1.000013945393693,-179.43008996671009
6.136882176,0.9999999170131381,-179.885317475905
6.144486912,0.9999859936221487,179.65964196990214
6.152091136,0.9999726963445785,179.20476201523698
6.159695872,0.9999607714325865,178.75008025428235
6.167300608,0.9999510412235065,178.29555657165707
6.174904832,0.999943812321339,177.84114875751766
6.182509568,0.9999395886758656,177.38681755234344
6.190114304,0.9999386350803078,176.93254502782244
6.197718528,0.9999408276653284,176.47823741105074
6.205323264,0.9999461076650438,176.02393538670847
6.212928,0.9999543870041129,175.5695056493483
6.220532224,0.9999650000790664,175.11496882287466
6.22813696,0.9999775405230442,174.66028677733155
6.235741696,0.9999911839303357,174.20543008572375
6.24334592,1.000005366742454,173.7504264372573
6.250950656,1.0000192340194354,173.29523052389234
6.25855488,1.0000320424573406,172.83983651858517
6.266159616,1.0000431342622078,172.3843032843265
6.273764352,1.0000520017754595,171.9286614586392
6.281368576,1.0000579577178406,171.4729319937647
6.288973312,1.0000608813579002,171.0171419781178
6.296578048,1.000060548606313,170.5613260982139
6.304182272,1.0000568919153048,170.1055585382804
6.311787008,1.000050274681378,169.64989663596393
6.319391744,1.0000409207426935,169.19428342267767
6.326995968,1.0000293670652207,168.73887718414736
6.334600704,1.0000160926421726,168.28362572587713
6.34220544,1.0000021429239947,167.82856049582128
6.349809664,0.9999878143667493,167.37369769682738
6.3574144,0.9999743750094666,166.9190225464744
6.365019136,0.9999621508628818,166.46452891575888
6.37262336,0.9999518649336483,166.01019061021046
6.380228096,0.9999442865697388,165.5559886295101
6.387832832,0.9999395009760236,165.1018816357875
6.395437056,0.999937914213957,164.64781729435836
6.403041792,0.9999397178240674,164.19376765400975
6.410646528,0.9999447417279081,163.73968108461423
6.418250752,0.9999525904546057,163.28552986094667
6.425855488,0.9999630964992099,162.8312571683104
6.433460224,0.9999755121016642,162.3768592891163
6.441064448,0.9999891857579761,161.92227004550847
6.448669184,1.0000035626049004,161.46751869795642
6.45627392,1.0000176360884965,161.01256891870014
6.463878144,1.0000308129518172,160.55747199510657
6.47148288,1.0000422118765753,160.10223824113845
6.479087616,1.0000515608720633,159.64684939716193
6.48669184,1.0000580351490285,159.19138043753676
6.494296576,1.0000613719491462,158.73583403886508
6.501901312,1.000061591487312,158.28028145800235
6.509505536,1.0000583289142646,157.82476940297104
6.517110272,1.0000520113781866,157.36932841579952
6.524715008,1.0000429619077016,156.91400082094808
6.532319232,1.0000314608001253,156.45881430118342
6.539923968,1.0000184335055784,156.0038121947846
6.547528704,1.000004384286782,155.5490312329119
6.555132928,0.9999899083300346,155.09442184564188
6.562737664,0.9999760927444582,154.64001450355968
6.5703424,0.9999634859318577,154.18579322333105
6.577946624,0.999952813541568,153.73173082244645
6.58555136,0.9999446377450868,153.27783660729207
6.593156096,0.9999393974959563,152.82402160509136
6.60076032,0.9999374223434103,152.37026628682264
6.608365056,0.9999387097101138,151.91653748271466
6.615969792,0.9999432909947247,151.4627715127828
6.623574016,0.9999509764156509,151.0089591888545
6.631178752,0.9999611436820063,150.55502395123568
6.638783488,0.9999734504418217,150.10096693076812
6.646387712,0.9999872072007321,149.64672758920386
6.653992448,1.0000015809854146,149.19234749836528
6.661597184,1.0000158871772218,148.73774486607076
6.669201408,1.0000293790845844,148.28302162067894
6.676806144,1.0000413099478422,147.82808674389466
6.68441088,1.0000510330318375,147.37306469462527
6.692015104,1.0000580807486528,146.91792505132048
6.69961984,1.0000619687286896,146.46272553975942
6.707224576,1.000062474450113,146.00750977507522
6.7148288,1.0000597729889396,145.55233357049482
6.722433536,1.000053850848564,145.09721780488152
6.730038272,1.0000450133885828,144.64223885910954
6.737642496,1.0000338182459787,144.18736816748347
6.745247232,1.00002071464502,143.73270876422967
6.752851456,1.0000064886063338,143.27821967436117
6.760456192,0.9999919590605546,142.8239563797453
6.768060928,0.9999778675704399,142.36990073679078
6.775665152,0.9999649882202011,141.91602855011197
6.783269888,0.9999537885608003,141.4623288796547
6.790874624,0.9999452240029795,141.00877906007912
6.798478848,0.9999393874553909,140.55534366907187
6.806083584,0.9999368997074143,140.101989742604
6.81368832,0.9999378311978413,139.64864450734999
6.821292544,0.9999419373799964,139.19529010853742
6.82889728,0.9999492679105589,138.74186361363473
6.836502016,0.9999591761013925,138.28833360922553
6.84410624,0.9999714843117505,137.83470488179478
6.851710976,0.9999851374553144,137.3808848351321
6.859315712,0.9999995886730246,136.92691577174025
6.866919936,1.0000141865112158,136.47275931752102
6.874524672,1.000027935206306,136.0184317784476
6.882129408,1.0000402919181817,135.56395938332878
6.889733632,1.0000504411108928,135.10933352028584
6.897338368,1.0000580683461107,134.65459250183304
6.904943104,1.0000624415843062,134.199824397316
6.912547328,1.0000634469126366,133.74501286900477
6.920152064,1.0000611868192706,133.29021902596836
6.9277568,1.000055499765132,132.83552539621257
6.935361024,1.0000470120456573,132.38091488299506
6.94296576,1.0000359360423543,131.92645733564268
6.950570496,1.000022907770961,131.47218111604684
6.95817472,1.000008728290738,131.0181020134101
6.965779456,0.9999939978733051,130.56421955100436
6.973384192,0.999979535845198,130.1105548985962
6.980988416,0.9999662385943372,129.65709975065573
6.988593152,0.9999547224329478,129.2038385921996
6.996197888,0.9999455426547625,128.75072510540156
7.003802112,0.9999393039208315,128.2977215293411
7.011406848,0.9999362991489052,127.84480592181875
7.019011584,0.9999366664352399,127.39189961731218
7.026615808,0.9999404194457447,126.93900826823517
7.034220544,0.9999474427837047,126.4860705633714
7.04182528,0.9999571877495951,126.03302323989666
7.049429504,0.9999692632687268,125.57984728545932
7.05703424,0.9999828562707646,125.12652355625987
7.064638976,0.9999974440486421,124.67303679258596
7.0722432,1.0000122606659272,124.21936802019836
7.079847936,1.0000264156047938,123.76552239582796
7.087452672,1.000039045967561,123.31149392601279
7.095056896,1.0000497784590021,122.85736253150094
7.102661632,1.0000577545335378,122.40309785742396
7.110266368,1.0000626880044685,121.94879684328379
7.117870592,1.0000642262226966,121.49444397867661
7.125475328,1.0000624210122786,121.0401208673424
7.133080064,1.0000572083669246,120.58585585321372
7.140684288,1.0000489356153153,120.13170622862093
7.148289024,1.0000381135761616,119.67768801086292
7.15589376,1.0000251742926503,119.22385352222629
7.163497984,1.0000109758986604,118.77022585984489
7.17110272,0.9999960601620772,118.31681957222447
7.178707456,0.9999813937021286,117.86360997796824
7.18631168,0.9999676820632977,117.410611119399
7.193916416,0.9999557496929294,116.95781542548637
7.201521152,0.9999461289850876,116.50518327511952
7.209125376,0.9999393863725172,116.05266234783709
7.216730112,0.9999358362956003,115.60023933281153
7.224334848,0.9999357001798744,115.14784944269513
7.231939072,0.9999390444799334,114.69545395978405
7.239543808,0.999945659593394,114.24303501739436
7.247148544,0.9999550916262477,113.79052473656121
7.254752768,0.9999670556820713,113.33788085610936
7.262357504,0.9999806833519157,112.88507517933763
7.269961728,0.9999954242645183,112.43211130980986
7.277566464,1.0000103786108716,111.97897028884712
7.2851712,1.0000248505488232,111.52566005809481
7.292775424,1.0000379157196184,111.07218294115975
7.30038016,1.0000490356048035,110.61856027395547
7.307984896,1.0000575082411676,110.1648190790911
7.31558912,1.0000630477156969,109.71101418723228
7.323193856,1.0000650336295618,109.25717147713236
7.330798592,1.0000636223090285,108.80335425124632
7.338402816,1.000058902480932,108.34958881086129
7.346007552,1.0000510054359775,107.8959237939486
7.353612288,1.0000402757075504,107.44240725273153
7.361216512,1.0000274298959733,106.98907011645143
7.368821248,1.0000131856635912,106.53593714691795
7.376425984,0.9999981503612592,106.08299156147815
7.384030208,0.9999831481365189,105.63031187866606
7.391634944,0.9999691425159315,105.17780895094492
7.39923968,0.9999567017139456,104.72550098557493
7.406843904,0.9999466544725165,104.27339975943059
7.41444864,0.9999393720506886,103.82140006733378
7.422053376,0.9999352887522455,103.36951758106045
7.4296576,0.9999346799928097,102.91767086253876
7.437262336,0.9999375582362594,102.46584234820953
7.444867072,0.9999437569394188,102.01396440260997
7.452471296,0.9999529747270336,101.56200682240883
7.460076032,0.9999646999981546,101.10992657549158
7.467680768,0.9999784166875954,100.65769038064283
7.475284992,0.9999931696166091,100.20531204536518
7.482889728,1.0000083886076983,99.75273385113283
7.490494464,1.0000230703202269,99.29996794619197
7.498098688,1.0000366285746256,98.84707088126217
7.505703424,1.0000481874916014,98.39399924196712
7.51330816,1.0000571929291053,97.94080727972306
7.520912384,1.0000631724835851,97.48754642348149
7.52851712,1.0000658106438811,97.03424390748641
7.536121856,1.0000648555330127,96.58096791487556
7.54372608,1.0000605617869722,96.12772738329885
7.551330816,1.0000528923375365,95.67457664518429
7.558935552,1.0000424407669848,95.22157462960523
7.566539776,1.0000297281987847,94.76875754640042
7.574144512,1.0000154032920918,94.31614224988809
7.581749248,1.0000002639508105,93.86373336845736
7.589353472,0.9999850736010537,93.41156814677343
7.596958208,0.9999706921554523,92.9596212313327
7.604562944,0.9999577918012255,92.50784441177547
7.612167168,0.9999472323408044,92.05626327059369
7.619771904,0.9999393466400084,91.60483866036661
7.62737664,0.9999347749329424,91.15350583349172
7.634980864,0.9999337169851414,90.70221872304634
7.6425856,0.9999360992399897,90.25095806893651
7.650190336,0.9999419169979631,89.79968488228623
7.65779456,0.9999508995591004,89.34829381790529
7.665399296,0.9999624899759628,88.89680871813464
7.673004032,0.9999759710572753,88.44517989261522
7.680608256,0.9999909363443023,87.99337602961678
7.688212992,1.000006245474984,87.54140794912657
7.695817728,1.0000213365865545,87.08922749217822
7.703421952,1.0000352531330459,86.63690150533051
7.711026688,1.0000473389506976,86.18440732462071
7.718631424,1.0000567974541765,85.73178932115638
7.726235648,1.0000633196796305,85.27910542559775
7.733840384,1.0000664513398805,84.8263680236803
7.74144512,1.0000660085132667,84.37363355974176
7.749049344,1.0000621075872067,83.92093827364998
7.75665408,1.0000548489214554,83.46834401915123
7.764258304,1.000044663662107,83.01588017073794
7.77186304,1.0000320617282243,82.56361210567736
7.779467776,1.0000177479244434,82.1115334845112
7.787072,1.0000024284712503,81.65966177402359
7.794676736,0.9999869424984117,81.20802832102851
7.802281472,0.9999721899614947,80.75661579355453
7.809885696,0.9999588925591497,80.30540937177796
7.817490432,0.9999478001189651,79.85438805444896
7.825095168,0.9999394362799706,79.40352975551967
7.832699392,0.9999343181411726,78.95276450819993
7.840304128,0.9999326013451348,78.50206663718828
7.847908864,0.9999346158892618,78.05139966606711
7.855513088,0.9999400003973902,77.60070569781108
7.863117824,0.9999487267020088,77.14992666932638
7.87072256,0.9999601093513656,76.69903727595967
7.878326784,0.9999736290661065,76.24800344891399
7.88593152,0.9999886077543416,75.79681579340372
7.893536256,1.000004095198201,75.34544275822817
7.90114048,1.0000195147864992,74.89387957186935
7.908745216,1.0000338510818048,74.44212133889661
7.916349952,1.0000463564462638,73.9902313974475
7.923954176,1.0000564274504484,73.53819996730154
7.931558912,1.0000634742839865,73.08608415950941
7.939163648,1.0000671394997211,72.63392508209388
7.946767872,1.0000672589467505,72.18173493854364
7.954372608,1.000063726365094,71.72960065258677
7.961977344,1.0000568387521789,71.27756370603339
7.969581568,1.0000469041333804,70.82565968113569
7.977186304,1.0000343781254744,70.37391739315555
7.98479104,1.0000201125987043,69.92238071741366
7.992395264,1.0000046719341733,69.47105676000872
8.0,0.9999889292368919,69.01998263590662
8.007604736,0.9999738334441384,68.56910765204513
8.01520896,0.9999600454044832,68.11846407248719
8.022813696,0.9999484611677119,67.66800469346938
8.030418432,0.9999395140148901,67.2177149333184
8.038022656,0.9999338618083308,66.7675344245157
8.045627392,0.9999316735659385,66.31742083977774
8.053232128,0.9999331088793707,65.86732768474528
8.060836352,0.9999382309181419,65.41723194121629
8.068441088,0.9999465551246869,64.96705809125122
8.076045824,0.9999577177095693,64.51677549325962
8.083650048,0.9999711866636367,64.06637432391236
8.091254784,0.9999861615094717,63.6157598079375
8.09885952,1.000001944435375,63.1649960782142
8.106463744,1.0000176108621177,62.714032753490635
8.11406848,1.0000323969831302,62.262883578418595
8.121673216,1.0000454113078878,61.81158050938961
8.12927744,1.0000559835913803,61.36012833676801
8.136882176,1.0000636037822317,60.908590615822725
8.144486912,1.0000678449760632,60.45698286779025
8.152091136,1.0000684781553937,60.00536030538617
8.159695872,1.0000654292760511,59.55378608259577
8.167300608,1.0000588139052675,59.10230122607437
8.174904832,1.0000491360853934,58.65092752313748
8.182509568,1.000036790417379,58.19972862438572
8.190114304,1.0000224309501844,57.748735336648046
8.197718528,1.0000068936663873,57.29794256289661
8.205323264,0.9999909555534763,56.847401759494716
8.212928,0.9999754410406618,56.39706639020868
8.220532224,0.9999612372623506,55.946967291904286
8.22813696,0.9999490632342293,55.49706485356718
8.235741696,0.9999396857117279,55.047330356712855
8.24334592,0.9999334122717317,54.59772151027701
8.250950656,0.9999306889960858,54.148193102350966
8.25855488,0.9999315899478068,53.69869689639468
8.266159616,0.999936260255126,53.24916978867688
8.273764352,0.9999442530661173,52.79959041587311
8.281368576,0.9999552657459077,52.349920994622835
8.288973312,0.9999686817809165,51.900086564301354
8.296578048,0.9999837396382286,51.45008999040983
8.304182272,0.9999997109505232,50.99993004976414
8.311787008,1.0000156832369886,50.549546927940206
8.319391744,1.000030808670774,50.09898318050321
8.326995968,1.0000442872015687,49.648243049832615
8.334600704,1.000055425444045,49.19738447381166
8.34220544,1.000063713906508,48.746397896033436
8.349809664,1.0000684591082232,48.29534112300235
8.3574144,1.0000696128899558,47.84427837704176
8.365019136,1.0000670146199215,47.3932328408376
8.37262336,1.000060892013397,46.942272514253084
8.380228096,1.000051375959243,46.491439314655274
8.387832832,1.0000391545264162,46.04076032196182
8.395437056,1.0000248566393761,45.59028082824625
8.403041792,1.0000091651485425,45.140032812075646
8.410646528,0.9999929990673043,44.689991676315216
8.418250752,0.9999771438446714,44.24020449402092
8.425855488,0.9999624696119921,43.790637836014696
8.433460224,0.9999497743579012,43.34126461927187
8.441064448,0.9999397240639467,42.8920855554652
8.448669184,0.9999329319856493,42.443003380409245
8.45627392,0.9999296145020521,41.99404157964271
8.463878144,0.9999301046228293,41.545098704349435
8.47148288,0.9999342922228703,41.09617126283078
8.479087616,0.9999420005545409,40.64714629338166
8.48669184,0.9999528307107247,40.19804489650582
8.494296576,0.9999661348218082,39.74879644890178
8.501901312,0.999981234170949,39.2993675925516
8.509505536,0.9999974216782835,38.84976957568456
8.517110272,1.0000136866585136,38.39996902550408
8.524715008,1.0000292120535352,37.94996601959377
8.532319232,1.000043208989374,37.49980072905981
8.539923968,1.000054873352342,37.049489958390836
8.547528704,1.0000637348507566,36.59902996408467
8.555132928,1.0000690834374872,36.14851906002396
8.562737664,1.0000707010878516,35.69798107347747
8.5703424,1.000068663786597,35.247435134950194
8.577946624,1.0000628609261386,34.79698215106712
8.58555136,1.0000537512559533,34.34664851891312
8.593156096,1.0000415596393626,33.89647384956173
8.60076032,1.000027310924245,33.446495559565996
8.608364544,1.0000114947515237,32.99673935149643
8.615969792,0.9999950930899478,32.547188884784134
8.623574016,0.9999788417370619,32.09790317746417
8.63117824,0.999963759222811,31.648855145895205
8.638783488,0.9999505153335594,31.199992188862378
8.646387712,0.9999399550280748,30.75131749980265
8.653991936,0.9999325400733329,30.302785226861555
8.661597184,0.9999287018620183,29.854324580812335
8.669201408,0.9999286198400575,29.4059337091397
8.676805632,0.9999323386570266,28.957519700714023
8.68441088,0.9999397540766131,28.509061971723956
8.692015104,0.9999502765176859,28.060508398113974
8.699619328,0.9999635286488544,27.611804066443995
8.707224576,0.9999787161150255,27.162940973930922
8.7148288,0.99999505798374,26.713872978860415
8.722433024,1.0000116304174929,26.264610471042104
8.730038272,1.0000275561170004,25.815152975820176
8.737642496,1.0000421260651837,25.365503152601367
8.74524672,1.0000544107242937,24.91569250806862
8.752851968,1.0000637281160742,24.465768167776652
8.760456192,1.000069722482378,24.015746291395974
8.768060416,1.0000719636366044,23.56569415914731
8.775665664,1.000070277678888,23.115648656562637
8.783269888,1.0000649150036385,22.665672583480333
8.790874112,1.000055993816175,22.215798148255587
8.79847936,1.0000441293920712,21.766086347571378
8.806083584,1.0000298361149649,21.316571383340587
8.813687808,1.0000139627280302,20.86727513840945
8.821293056,0.9999972125939572,20.41821108174815
8.82889728,0.9999806847451819,19.969378274767895
8.836501504,0.9999650848537396,19.52079662234494
8.844106752,0.9999513341113433,19.072410545531437
8.851710976,0.999940147611481,18.624212155321295
8.8593152,0.9999321402076892,18.176166266188403
8.866920448,0.9999277297237271,17.728223049982383
8.874524672,0.9999271296432168,17.280314315693484
8.882128896,0.99993049282064,16.832413201495278
8.889734144,0.9999374311392505,16.38445795580257
8.897338368,0.9999477270951636,15.936401624052003
8.904942592,0.9999609372921315,15.488222067545715
8.91254784,0.9999761356800991,15.03987030248924
8.920152064,0.9999926559347753,14.591320365238534
8.927756288,1.0000095617845417,14.14256494405539
8.935361536,1.0000259284439037,13.6935974596358
8.94296576,1.0000409849106642,13.244446988531273
8.950569984,1.0000538632744258,12.795106242296438
8.958175232,1.0000637452851036,12.345659185152753
8.965779456,1.0000703422454214,11.896097463689403
8.97338368,1.000073117401273,11.446496911814936
8.980988928,1.0000720458680439,10.996900032774382
8.988593152,1.0000670347753056,10.547355760783194
8.996197376,1.0000584847671445,10.097906626762578
9.003802624,1.0000466890220043,9.648630437048908
9.011406848,1.000032464935802,9.199530192037406
9.019011072,1.0000164850376956,8.750648786407124
9.02661632,0.9999995168214209,8.30200778460495
9.034220544,0.9999825721353474,7.853613495887071
9.041824768,0.9999664981168626,7.405431390628493
9.049430016,0.9999521929425647,6.9575018393452135
9.05703424,0.9999404374663226,6.50973042512639
9.064638464,0.999931784998712,6.062134092257602
9.072243712,0.9999267907054339,5.614634229683251
9.079847936,0.9999256934721277,5.167192857546896
