freq,mag,phase
6.0,1.00000143344636,-61.72154655248592
6.041236992,1.0000008632804769,-63.45722413533605
6.082473984,1.0000009053732613,-65.19388112395949
6.123711488,1.0000010898562601,-66.93146292172443
6.16494848,1.0000014978190022,-68.6699601479061
6.206185472,1.0000018228666807,-70.40934606773092
6.247422464,1.0000023160177973,-72.14961299259967
6.288659968,1.000003105865534,-73.89074846191416
6.32989696,1.0000036462959832,-75.63274455248607
6.371133952,1.0000045154319896,-77.37561290379696
6.412370944,1.000005241726332,-79.11930900492916
6.453608448,1.00000620136042,-80.86380737339934
6.49484544,1.0000071414361198,-82.60912404249108
6.536082432,1.000008030310352,-84.35520303780336
6.577319424,1.0000090368929142,-86.10206375212958
6.618556928,1.000010027012778,-87.84967740375986
6.65979392,1.0000109655225875,-89.59799084943937
6.701030912,1.0000120188411636,-91.34705984336796
6.742267904,1.0000130404764986,-93.09683236549067
6.783505408,1.000014022103777,-94.84728765717288
6.8247424,1.0000148444063728,-96.59839101324252
6.865979392,1.0000158036726434,-98.35017421720758
6.907216384,1.0000164932523006,-100.10256876031777
6.948453376,1.000017282574511,-101.85557210636563
6.98969088,1.0000177426752428,-103.60916081971871
7.030927872,1.000018389367636,-105.36331024662766
7.072164864,1.0000188983405303,-107.11803807382091
7.113401856,1.0000191643719223,-108.87328306317077
7.15463936,1.0000193838413014,-110.6290642219918
7.195876352,1.000019581978118,-112.385291555787
7.237113344,1.000019654387397,-114.14203478852664
7.278350336,1.0000195751467762,-115.89919933348322
7.31958784,1.0000193816150271,-117.65681487203894
7.360824832,1.0000191016203441,-119.41481760937928
7.402061824,1.0000186995086884,-121.17321999644508
7.443298816,1.000018167734324,-122.93200515852831
7.48453632,1.0000175174857144,-124.69109537473442
7.525773312,1.0000169008810103,-126.45055674406059
7.567010304,1.0000160276658026,-128.21029327716218
7.608247296,1.000015307907607,-129.9703175756751
7.649484288,1.0000143572183415,-131.7305765099055
7.690721792,1.0000133595108973,-133.49109934346077
7.731958784,1.0000123831010996,-135.2518482395549
7.773195776,1.0000112699012622,-137.01276391526275
7.814432768,1.0000102132564381,-138.77387951920934
7.855670272,1.0000091090592875,-140.53511392771574
7.896907264,1.000007966542137,-142.2964993941298
7.938144256,1.0000069397776503,-144.05798966872746
7.979381248,1.0000059339923226,-145.8195579620403
8.020618752,1.0000048212413586,-147.58119498081737
8.061855744,1.000003869346846,-149.34287678846448
8.103092736,1.0000029438083704,-151.10458851348767
8.144329728,1.0000021244562551,-152.86629738755374
8.185567232,1.0000013723122534,-154.6279831382722
8.226804224,1.0000006181456493,-156.38965531124782
8.268041216,1.0000001078894356,-158.15119412935772
8.309278208,0.9999995979430731,-159.9127061064375
8.350515712,0.9999992128471165,-161.6741017507997
8.391752704,0.9999989719962904,-163.43535685187615
8.432989696,0.9999987626742671,-165.1964742334641
8.474226688,0.999998750398091,-166.95744461223646
8.51546368,0.9999988140633393,-168.71820263486615
8.556701184,0.9999990950139668,-170.4787402031676
8.597938176,0.999999372614813,-172.23907339757707
8.63917568,0.9999998444720641,-173.9991812999195
8.68041216,1.0000002863694804,-175.75897003669394
8.721649664,1.0000009848440319,-177.51852103166712
8.762886144,1.000001679611898,-179.27768861537194
8.804123648,1.0000025438394191,178.96340789247233
8.845361152,1.0000034612905704,177.20487627840188
8.886597632,1.000004469601237,175.4467244842994
8.927835136,1.0000054070195927,173.6889363334312
8.96907264,1.0000066271966386,171.93157386461806
9.01030912,1.0000077215982046,170.17461524094443
9.051546624,1.000008761864578,168.41812636183238
9.092783104,1.00000995610621,166.66209896271806
9.134020608,1.000011101637265,164.90654698574934
9.175258112,1.000012213402578,163.15151628009738
9.216494592,1.0000133897458114,161.3969890205641
9.257732096,1.0000143744574919,159.64303937577108
9.298968576,1.000015368365603,157.88961928787595
9.34020608,1.0000163662411674,156.1367771318059
9.381443584,1.0000172565827687,154.3845434149716
9.422680064,1.0000180480108227,152.63291216736175
9.463917568,1.000018677857847,150.8819226599954
9.505155072,1.0000193192280242,149.1315593807352
9.546391552,1.0000198278934345,147.3818947094692
9.587629056,1.0000201415036403,145.63291962292166
9.628865536,1.0000203578067015,143.8846213580687
9.67010304,1.0000204630595457,142.13705156037983
9.711340544,1.0000205306063095,140.39021543407338
9.752577024,1.0000203707616426,138.64414167308203
9.793814528,1.0000200653947546,136.89881531484622
9.835052032,1.0000196243345731,135.1542858948827
9.876288512,1.00001916433898,133.4105598902799
9.917526016,1.000018490486323,131.66763096254527
9.958762496,1.0000177777252715,129.9255548435983
10.0,1.0000169155866125,128.18430214594082
10.041237504,1.0000159074990143,126.44392072372044
10.082473984,1.0000149457996326,124.7044228001055
10.123711488,1.0000138508174714,122.96576825599213
10.164947968,1.000012658134716,121.22804339333456
10.206185472,1.000011392742574,119.49121098196005
10.247422976,1.0000101756636985,117.7553085199971
10.288659456,1.0000089946195523,116.02033698940953
10.32989696,1.00000759185737,114.28631766963167
10.371134464,1.0000063524034009,112.5532339712396
10.412370944,1.000005046360672,110.821132235299
10.453608448,1.0000038167741034,109.09000450952303
10.494844928,1.0000027054639666,107.35986385701185
10.536082432,1.0000015550767294,105.63072251664367
10.577319936,1.0000005254131803,103.90256779709563
10.618556416,0.9999995008724787,102.1754505549071
10.65979392,0.9999986818382123,100.44934147093716
10.701031424,0.9999979639593896,98.72425286709115
10.742267904,0.9999973006175698,97.00020247496299
10.783505408,0.9999968425959372,95.27719835945183
10.824741888,0.9999963669363712,93.55524092943556
10.865979392,0.9999961421559509,91.83433015292856
10.907216896,0.9999960959011509,90.11449897300503
10.948453376,0.9999960774755602,88.39572088801069
10.98969088,0.9999962878184794,86.67799633216666
11.03092736,0.9999965686959932,84.9613848612179
11.072164864,0.9999970558781387,83.245818657069
11.113402368,0.9999977176217337,81.53134363436997
11.154638848,0.999998412253988,79.81796848020609
11.195876352,0.9999991992692681,78.10567445889222
11.237113856,1.0000002458662234,76.39445806325091
11.278350336,1.0000012905469746,74.6843602223558
11.31958784,1.0000024638224267,72.97534805606371
11.36082432,1.0000037862619584,71.26743734986212
11.402061824,1.000005060397325,69.56063182131997
11.443299328,1.000006463669616,67.8549348649789
11.484535808,1.0000078717333374,66.15034068349736
11.525773312,1.0000092210261842,64.44683278029216
11.567010816,1.0000106951841217,62.74446532187112
11.608247296,1.0000121827627895,61.04318503881364
11.6494848,1.0000135111331785,59.343009710756434
11.69072128,1.0000148479822912,57.64395651552753
11.731958784,1.00001614529172,55.94601446709561
11.773196288,1.000017395400808,54.249176714808215
11.814432768,1.0000185356266331,52.55343180124854
11.855670272,1.0000195119800133,50.858815152228345
11.896906752,1.000020432183356,49.16532438420196
11.938144256,1.0000211932352336,47.47291145408485
11.97938176,1.0000218888842602,45.78161727727551
12.02061824,1.0000223740398728,44.091414489058145
12.061855744,1.0000226498265072,42.40232137117771
12.103093248,1.000022868827298,40.71434401670655
12.144329728,1.000022890142581,39.02743978749268
12.185567232,1.0000228084964924,37.341636306560744
12.226803712,1.0000225155274842,35.65693140818526
12.268041216,1.0000219975713738,33.97331757078623
12.30927872,1.0000213648135063,32.29079157242288
12.3505152,1.00002053751378,30.609347244320425
12.391752704,1.0000195697870204,28.929000364528203
12.432989184,1.0000184842697366,27.249703954518484
12.474226688,1.0000172075738802,25.571488311918163
12.515464192,1.0000159481560094,23.894332456012755
12.556700672,1.0000145533704774,22.218248965783193
12.597938176,1.000012984450147,20.543220800118036
12.63917568,1.0000114831258464,18.869239795135666
12.68041216,1.0000097622081925,17.196302619823754
12.721649664,1.0000081608879614,15.524417376811574
12.762886144,1.0000064550262235,13.853540215526188
12.804123648,1.0000046727999647,12.183686819076135
12.845361152,1.0000030291657107,10.514849220254211
12.886597632,1.0000013505891154,8.847030366394584
12.927835136,0.9999997853518502,7.180219934533552
12.96907264,0.9999983032464177,5.514400794779456
13.01030912,0.9999969022570107,3.8495535028914483
13.051546624,0.9999955096212881,2.185675553991717
13.092783104,0.9999944172247933,0.5227725738038009
13.134020608,0.9999933270022051,-1.1391909778068425
13.175258112,0.9999924517412166,-2.800197191791528
13.216494592,0.9999918224518054,-4.460287801413048
13.257732096,0.9999912595468939,-6.119433773683407
13.298968576,0.9999908141579916,-7.77766888820772
13.34020608,0.9999907203302965,-9.43501500842312
13.381443584,0.9999907494336491,-11.091458807195217
13.422680064,0.9999910303474585,-12.747028759214441
13.463917568,0.9999914180134963,-14.401750095587408
13.505155072,0.9999921465551577,-16.055591782350227
13.546391552,0.9999929528168597,-17.70861134312825
13.587629056,0.9999939481661021,-19.360784228349818
13.628865536,0.9999952296238839,-21.012135016032133
13.67010304,0.9999965288009002,-22.66268828517504
13.711340544,0.9999980724311407,-24.31244663721185
13.752577024,0.9999996801764749,-25.961418817977123
13.793814528,1.0000014858671498,-27.609647175286955
13.835052032,1.0000034388260441,-29.257095426223227
13.876288512,1.0000053573086047,-30.903826152538386
13.917526016,1.0000074108194894,-32.549805356170204
13.958762496,1.0000094745595915,-34.19507175544092
14.0,1.0000114478546052,-35.83963736398525
