freq,mag,phase
6.0,0.9999508301535635,-90.85778621619563
6.002287616,0.9998841209239019,-90.9828097601136
6.004575232,0.9998295147646098,-91.1069918750028
6.006862848,0.9997865485798925,-91.23046381500507
6.009150464,0.9997578604013084,-91.35345374090541
6.011438592,0.9997453296173558,-91.47614787589475
6.013726208,0.9997498585340434,-91.59874853356865
6.016013824,0.9997709656600472,-91.72160312775594
6.01830144,0.9998073989844133,-91.84486822326267
6.020589056,0.9998568443848227,-91.96877923934866
6.022876672,0.999916331174961,-92.09351504855587
6.025164288,0.9999818703469645,-92.21911983545097
6.027451904,1.0000492581954525,-92.3457458089066
6.029740032,1.0001142877412454,-92.47335209333166
6.032027648,1.0001728667757752,-92.6018257791504
6.034315264,1.0002212369006418,-92.73111906279665
6.03660288,1.0002562490367592,-92.86107180391515
6.038890496,1.0002756932265733,-92.99140497800039
6.041178112,1.0002784044845383,-93.12191924270981
6.043465728,1.0002640657530977,-93.2523401568439
6.045753344,1.0002336490802275,-93.38247036814042
6.04804096,1.0001892685124525,-93.51203707552449
6.050329088,1.0001333498634672,-93.64092473570186
6.052616704,1.0000697608810032,-93.76893566510309
6.05490432,1.0000025525539038,-93.89599975535573
6.057191936,0.9999356754717051,-94.0221174567888
6.059479552,0.9998737726233382,-94.14731428340069
6.061767168,0.9998206022822624,-94.2716189403559
6.064054784,0.9997796630353054,-94.39535108170887
6.0663424,0.9997533907072524,-94.51854290030668
6.068630016,0.9997436455634752,-94.64149073395807
6.070918144,0.999750982031476,-94.76442492791972
6.07320576,0.9997749154223292,-94.88757738318782
6.075493376,0.9998138332114902,-95.01128033828545
6.077780992,0.9998655946789504,-95.13557394335118
6.080068608,0.9999265102093989,-95.26072322842205
6.082356224,0.9999930008099714,-95.38681879811196
6.08464384,1.0000608054733333,-95.51393029144783
6.086931456,1.0001254172552556,-95.64197998838874
6.089219584,1.0001827614964347,-95.7709401608407
6.0915072,1.0002293266040185,-95.90070080163788
6.093794816,1.0002619184649753,-96.0310101795334
6.096082432,1.0002788179897941,-96.16169052495361
6.098370048,1.0002785366296771,-96.292512735905
6.100657664,1.000261447572239,-96.42323799823293
6.10294528,1.0002282684423054,-96.55360887592882
6.105232896,1.0001813493099723,-96.68339364897385
6.107520512,1.0001237798451152,-96.81244380981832
6.10980864,1.0000590107921405,-96.94059228612423
6.112096256,0.9999910626333899,-97.06780656253984
6.114383872,0.9999246105770462,-97.19402401252998
6.116671488,0.9998634372827613,-97.31934838961111
6.118959104,0.9998118923136774,-97.4438856290351
6.12124672,0.999772934990406,-97.56772914053595
6.123534336,0.99974924144115,-97.69115073364618
6.125821952,0.999742343020391,-97.8143526932763
6.128109568,0.9997525951367715,-97.93756000790135
6.130397696,0.9997794270206588,-98.06107168657076
6.132685312,0.9998208449335438,-98.185081740284
6.134972928,0.9998745979788787,-98.30981425860065
6.137260544,0.9999371050665808,-98.4354092927795
6.13954816,1.0000044998212385,-98.56196034359698
6.141835776,1.0000723365665056,-98.68949808841185
6.144123392,1.0001363392650886,-98.8179823238409
6.146411008,1.0001923238293873,-98.94741051287042
6.148699136,1.000236983169244,-99.0775556350054
6.150986752,1.0002674285058886,-99.20824622936058
6.153274368,1.0002814285467678,-99.33927744119248
6.155561984,1.0002783454733155,-99.47038165429518
6.1578496,1.0002582847372723,-99.60135324653113
6.160137216,1.0002226578116746,-99.73194911388168
6.162424832,1.000173431913971,-99.86190209777776
6.164712448,1.0001139691260645,-99.99107676187558
6.167000064,1.0000480004969696,-100.11936392936406
6.169288192,0.999979770179123,-100.246685973476
6.171575808,0.9999135124388295,-100.37303940861023
6.173863424,0.9998533565304009,-100.4984422791981
6.17615104,0.9998035407753125,-100.62309101318246
6.178438656,0.999766748252745,-100.74712247450454
6.180726272,0.9997456824997533,-100.87074442687334
6.183013888,0.9997416808222473,-100.99414497426905
6.185301504,0.9997547674425967,-101.1176694217203
6.18758912,0.9997841867613612,-101.24149315725437
6.189877248,0.9998282998647621,-101.36587903453186
6.192164864,0.9998840443419837,-101.49098657764173
6.19445248,0.9999479742601941,-101.6169815860619
6.196740096,1.0000159053240103,-101.74397174746666
6.199027712,1.0000837915106715,-101.87191708720887
6.201315328,1.0001470399818673,-102.00083083826418
6.203602944,1.0002017552767477,-102.13065373942743
6.20589056,1.0002444987000234,-102.26121016055478
6.208178688,1.0002723260936615,-102.39220794657274
6.210466304,1.000283710530492,-102.52359239257399
6.21275392,1.0002776750517304,-102.65496916688434
6.215041536,1.0002547162916757,-102.7861319241309
6.217329152,1.000216450061015,-102.91691755826137
6.219616768,1.0001651468495065,-103.0470128148085
6.221904384,1.000103858602771,-103.17635151102462
6.224192,1.0000369240760898,-103.30470522664666
6.226479616,0.9999682842365051,-103.43212378732454
6.228767744,0.9999023962952502,-103.55854255711135
6.23105536,0.9998435552007612,-103.68407515250631
6.233342976,0.9997953804968129,-103.8088287596608
6.235630592,0.9997608437735677,-103.93302471645974
6.237918208,0.999742520059333,-104.05678435533153
6.240205824,0.9997413110841439,-104.18045750698876
6.24249344,0.9997572067103817,-104.30425960518484
6.244781056,0.9997894668666394,-104.42837322479923
6.247068672,0.9998358090144905,-104.5530831445036
6.2493568,0.9998935407715177,-104.67853547935326
6.251644416,0.9999588112252952,-104.80495557545709
6.253932032,1.0000274327686955,-104.93231832434789
6.256219648,1.0000952336123643,-105.06068357352025
6.258507264,1.0001577038224865,-105.19002674902478
6.26079488,1.000210869194613,-105.32020569987763
6.263082496,1.0002514509928728,-105.45110096883336
6.265370112,1.000276895801772,-105.5824554273754
6.26765824,1.0002853155522327,-105.7140942117092
6.269945856,1.0002764600002925,-105.84570462370621
6.272233472,1.0002507007437893,-105.97709625454834
6.274521088,1.000209823412378,-106.1079959209344
6.276808704,1.0001561957728609,-106.23826478595232
6.27909632,1.000093418714233,-106.36765614859645
6.281383936,1.0000256253979447,-106.49610395504257
6.283671552,0.9999567618031332,-106.6235536742523
6.285959168,0.9998914133485529,-106.75008378346924
6.288247296,0.9998337111168727,-106.87568218809312
6.290534912,0.9997873448245843,-107.00054425120658
6.292822528,0.9997553422074392,-107.1248507545975
6.295110144,0.9997396421116629,-107.24879374373558
6.29739776,0.9997412535069709,-107.37267459959683
6.299685376,0.9997602274834592,-107.4966457940691
6.301972992,0.9997951043991112,-107.6210794222602
6.304260608,0.9998439115533835,-107.74610046320075
6.306548224,0.9999034477561035,-107.87196913257742
6.308836352,0.999969887012758,-107.99870818457975
6.311123968,1.0000390485712058,-108.12645502994614
6.313411584,1.0001066120375093,-108.25521201024522
6.3156992,1.0001680514948112,-108.38495887734523
6.317986816,1.0002196252367785,-108.51546826739506
6.320274432,1.0002580855501408,-108.64669022687613
6.322562048,1.0002808636917575,-108.77838471477499
6.324849664,1.0002865463569166,-108.9102283560333
6.327137792,1.0002746344583793,-109.0420799165559
6.329425408,1.000246216496836,-109.17362717672636
6.331713024,1.000202792165193,-109.30466379653257
6.33400064,1.0001472230750412,-109.43498333071828
6.336288256,1.0000829030597163,-109.56445863930954
6.338575872,1.0000142445582931,-109.69296481829393
6.340863488,0.9999452848707789,-109.82046908627345
6.343151104,0.9998805295948874,-109.94702119564832
6.34543872,0.9998242026613907,-110.07267287294941
6.347726848,0.9997798778267202,-110.19759864456893
6.350014464,0.9997503053338741,-110.32201668291268
6.35230208,0.9997372685968806,-110.44612693948412
6.354589696,0.9997418564478825,-110.57017329849968
6.356877312,0.9997635507662531,-110.69444930574464
6.359164928,0.9998012409171212,-110.81908537459664
6.361452544,0.9998522725741672,-110.9444369079609
6.36374016,0.9999134838072292,-111.07065333991952
6.366027776,0.9999811002597122,-111.1977349362323
6.368315904,1.0000506231962059,-111.32587789056947
6.37060352,1.0001178405466695,-111.45496305428713
6.372891136,1.0001782472396124,-111.58501929702021
6.375178752,1.0002281773340915,-111.71593942098079
6.377466368,1.0002643660548103,-111.84741186362062
6.379753984,1.0002845183264135,-111.9793536901266
6.3820416,1.00028728918193,-112.1114562952239
6.384329216,1.000272530956824,-112.24346929314424
6.386617344,1.0002413081709536,-112.37515528173662
6.38890496,1.0001953555375929,-112.50632964183272
6.391192576,1.000137738941071,-112.63667435551486
6.393480192,1.0000721436806463,-112.76619056551333
6.395767808,1.0000027152967625,-112.89472914366338
6.398055424,0.9999338019715212,-113.02223900617443
6.40034304,0.9998698833489448,-113.1488157056654
6.402630656,0.9998149806766292,-113.27453261617235
6.404918272,0.9997726736317681,-113.39953005764512
6.4072064,0.9997454977004864,-113.5240458602089
6.409494016,0.999735393440473,-113.64827655507617
6.411781632,0.9997429410316487,-113.77249949885929
6.414069248,0.9997674993230964,-113.89693790931466
6.416356864,0.9998077241913867,-114.02187151278527
6.41864448,0.9998610393301492,-114.1475010994152
6.420932096,0.9999239821675898,-114.27398682344315
6.423219712,0.9999925785763307,-114.40145573078831
6.425507328,1.0000623687492243,-114.52990744841186
6.427795456,1.0001290635726827,-114.65937326203041
6.430083072,1.0001884084532393,-114.78975995924004
6.432370688,1.000236446545025,-114.92096645356547
6.434658304,1.0002702476115355,-115.05271517785022
6.43694592,1.000287749846916,-115.18487352171276
6.439233536,1.0002875883142694,-115.31717348301444
6.441521152,1.0002699920410658,-115.44931452334156
6.443808768,1.000235899441673,-115.58113415278055
6.446096896,1.0001875797092072,-115.71232388438469
6.448384512,1.0001280862918984,-115.84278222946736
6.450672128,1.0000612651025382,-115.97228278325157
6.452959744,0.9999911597228014,-116.1008338692623
6.45524736,0.9999224790024391,-116.228341091395
6.457534976,0.9998594504951861,-116.35493051432871
6.459822592,0.9998060578455844,-116.48063440801127
6.462110208,0.9997658666095111,-116.60569389365993
6.464397824,0.9997413151272417,-116.73024620836556
6.466685952,0.9997340917925197,-116.85459721470426
6.468973568,0.9997444175367471,-116.97898689216333
6.471261184,0.9997719848696232,-117.10362179184449
6.4735488,0.9998147951737578,-117.22882276691212
6.475836416,0.9998701561479324,-117.35470288073381
6.478124032,0.9999347021778563,-117.48147794458211
6.480411648,1.0000041669125337,-117.60923347038938
6.482699264,1.0000742236482696,-117.73803429166719
6.48498688,1.0001402438488691,-117.86779665893181
6.487275008,1.000198290228394,-117.99849327363755
6.489562624,1.0002444682698959,-118.12994462168018
6.49185024,1.0002758299886019,-118.2619762795392
6.494137856,1.0002905174585257,-118.39434010935078
6.496425472,1.0002874555359573,-118.52678283380287
6.498713088,1.000266997969839,-118.65907772264626
6.501000704,1.0002301794988189,-118.79099471045551
6.50328832,1.0001794327710207,-118.92224013147144
6.505576448,1.0001182228359087,-119.05265839164215
6.507864064,1.0000501259551053,-119.18216194711015
6.51015168,0.9999795884853231,-119.31063288825565
6.512439296,0.9999110741585108,-119.43812823905189
6.514726912,0.9998490207305031,-119.56467836665553
6.517014528,0.9997973818519612,-119.69041390079391
6.519302144,0.9997594225257671,-119.81547501609253
6.52158976,0.9997374761297354,-119.94012442314624
6.523877376,0.9997330315324694,-120.06457018666526
6.526165504,0.9997464583680227,-120.18908964737719
6.52845312,0.9997768016321606,-120.31392067835165
6.530740736,0.9998220943433438,-120.43930717765977
6.533028352,0.9998795725524341,-120.56546667062547
6.535315968,0.9999455843334999,-120.69252226414218
6.537603584,1.0000158557014296,-120.82055718549105
6.5398912,1.0000858509008173,-120.94963046356854
6.542178816,1.0001512760386448,-121.07969979641881
6.544466432,1.0002078578894251,-121.21066837114464
6.54675456,1.0002520785884093,-121.34238286128438
6.549042176,1.0002809884182156,-121.47462309209564
6.551329792,1.0002928829299174,-121.60713342303087
6.553617408,1.0002868359790493,-121.73975458043235
6.555905024,1.0002634270328383,-121.87210037120423
6.55819264,1.0002238486207278,-122.00404592001253
6.560480256,1.0001709661983766,-122.1353119774681
6.562767872,1.0001078678776254,-122.26572510547268
6.565056,1.0000386778479187,-122.39518067496698
6.567343616,0.9999677977146285,-122.52362995999228
6.569631232,0.9998997429644568,-122.65105803938208
6.571918848,0.999838792938144,-122.77757819753485
6.574206464,0.9997888567627639,-122.90326716575751
6.57649408,0.9997531017117842,-123.0283337887239
6.578781696,0.9997338792746762,-123.15301714178663
6.581069312,0.9997324410040013,-123.27752438075086
6.583356928,0.9997487881695613,-123.40216779379058
6.585645056,0.9997819506119087,-123.52714673144673
6.587932672,0.9998297647245422,-123.65275282337106
6.590220288,0.9998892985198209,-123.77914140585995
6.592507904,0.99995656952345,-123.90645714086597
6.59479552,1.0000275629336886,-124.03478700159765
6.597083136,1.0000975211494945,-124.16412564197569
6.599370752,1.000162159065683,-124.29443109024676
6.601658368,1.000217253207779,-124.42566930536682
6.603945984,1.000259271629255,-124.55756550051387
6.606234112,1.000285746515581,-124.69001056179958
6.608521728,1.0002946626157414,-124.82267840582178
6.610809344,1.0002857178710003,-124.9553649773423
6.61309696,1.0002593279933993,-125.08784450390903
6.615384576,1.000217283729231,-125.21976280601004
6.617672192,1.0001620812776464,-125.35099740069384
6.619959808,1.000097320644693,-125.48136174139907
6.622247424,1.0000271564553471,-125.6107609312117
6.624535552,0.9999560769778624,-125.739125553412
6.626823168,0.9998885238195528,-125.86650334682496
6.629110784,0.9998288244948601,-125.99290687827836
6.6313984,0.9997807185549148,-126.11853193077484
6.633686016,0.9997474282288449,-126.24363361379855
6.635973632,0.9997309607525888,-126.36832752372224
6.638261248,0.9997324133996184,-126.49292060675587
6.640548864,0.9997517327236772,-126.61763834748503
6.64283648,0.9997876333239896,-126.74278599856414
6.645124608,0.9998378994711385,-126.86858330439215
6.647412224,0.9998992738977853,-126.99516920294546
6.64969984,0.9999678910140001,-127.12269871461281
6.651987456,1.0000394146837919,-127.25126885027382
6.654275072,1.0001092335603976,-127.38086696591256
6.656562688,1.0001728925600104,-127.51143288811582
6.658850304,1.000226352693499,-127.64289007740163
6.66113792,1.0002663371882974,-127.77498731899064
6.663426048,1.000290073709551,-127.90757644483965
6.665713664,1.0002961436909867,-128.04036239336676
6.66800128,1.0002841354216216,-128.17315540295397
6.670288896,1.0002549002054348,-128.3055898989937
6.672576512,1.0002102747203452,-128.4375399834846
6.674864128,1.000152851981149,-128.56872093792296
6.677151744,1.0000866613125232,-128.69900168419565
6.67943936,1.0000156480159885,-128.82828254680172
6.681726976,0.9999443260664156,-128.95653568678875
6.684015104,0.9998774137257066,-129.08382682884513
6.68630272,0.9998189450369673,-129.2101812700254
6.688590336,0.9997729518975267,-129.33572418958875
6.690877952,0.9997420186996804,-129.4607453645034
6.693165568,0.9997284125389168,-129.58547071516077
6.695453184,0.9997328491520932,-129.7100851093061
6.6977408,0.999755120206545,-129.8349209197898
6.700028416,0.999793836027331,-129.96023160609835
6.702316032,0.9998464230082851,-130.0861561379767
6.70460416,0.9999096779195524,-130.21293337484195
6.706891776,0.9999794758082295,-130.3406756536439
6.709179392,1.00005138089008,-130.46949102789736
6.711467008,1.000120826980135,-130.59931721680482
6.713754624,1.0001835226976137,-130.73007136811134
6.71604224,1.0002352655089082,-130.8617266288237
6.718329856,1.0002729025094237,-130.99398436031544
6.720617472,1.00029397001194,-131.12671027827614
6.7229056,1.0002971441169886,-131.25956777874867
6.725193216,1.0002821487285636,-131.3923701288503
6.727480832,1.0002499774995242,-131.52481916553927
6.729768448,1.0002027098437583,-131.65674569277908
6.732056064,1.0001433950571714,-131.78782293189096
6.73434368,1.0000755818855538,-131.91803358333541
6.736631296,1.0000037791448904,-132.04717990982346
6.738918912,0.9999325251039781,-132.17533512766664
6.741206528,0.9998663649452634,-132.30242260521283
6.743494656,0.9998094224992004,-132.4286717863559
6.745782272,0.999765423676906,-132.55415672041093
6.748069888,0.9997370469057596,-132.67913572886982
6.750357504,0.9997263253293276,-132.8038184156705
6.75264512,0.9997337533260998,-132.92849715673538
6.754932736,0.9997590007516217,-133.0533657061355
6.757220352,0.999800425992334,-133.1787556625254
6.759507968,0.9998553339754659,-133.3048525066812
6.761795584,0.9999203167774381,-133.43180800890792
6.764083712,0.9999911199404682,-133.55974293827032
6.766371328,1.0000634009026101,-133.68873415799015
6.768658944,1.0001324832892322,-133.81877099430457
6.77094656,1.0001939754299212,-133.9497441300563
6.773234176,1.0002438489787064,-134.08154457830378
6.775521792,1.0002791820407462,-134.21395057246028
6.777809408,1.0002974810868692,-134.34673989641476
6.780097024,1.0002976090703657,-134.4796803934455
6.782385152,1.0002797021929144,-134.61250001677342
6.784672768,1.000244696070031,-134.7449123621177
6.786960384,1.0001948659816227,-134.8767489318643
6.789248,1.0001335132069151,-135.00773127439555
6.791535616,1.0000644084671197,-135.13777217267534
6.793823232,0.9999919406289011,-135.2667749361303
6.796110848,0.9999207502369998,-135.39475151328594
6.798398464,0.9998553977736425,-135.52172115092753
6.80068608,0.9998000093060669,-135.6478290833818
6.802974208,0.9997582261203141,-135.77320924053498
6.805261824,0.9997324795378292,-135.8981156732671
6.80754944,0.9997246412005517,-136.0227728924919
6.809837056,0.9997351602499991,-136.14745690767768
6.812124672,0.9997633184808751,-136.2723677176063
6.814412288,0.9998074482968086,-136.39787854747172
6.816699904,0.9998645756999786,-136.5240585963088
6.81898752,0.99993112521447,-136.6511848839875
6.821275136,1.0000029802588646,-136.77931249253078
6.823563264,1.0000755229656768,-136.908489897909
6.82585088,1.00014405569184,-137.03869324808227
6.828138496,1.000204201267046,-137.16981592694205
6.830426112,1.0002521928648849,-137.3017450201587
6.832713728,1.000285016505108,-137.4342711776419
6.835001344,1.0003004803244633,-137.567148311902
6.83728896,1.000297655828637,-137.70007488894004
6.839576576,1.000276687902248,-137.8328772377947
6.841864704,1.0002387934132813,-137.96524536389245
6.84415232,1.0001866515854205,-138.0969509030935
6.846439936,1.0001233332766577,-138.227813369681
6.848727552,1.0000529348544966,-138.35769054502785
6.851015168,0.9999799937934883,-138.4865161925349
6.853302784,0.9999090494039339,-138.61430873696884
6.8555904,0.9998446274315699,-138.74110610643274
6.857878016,0.9997909428361246,-138.86706863537702
6.860165632,0.9997513149785373,-138.99232679343032
6.86245376,0.9997283493875919,-139.1171311347287
6.864741376,0.9997234635699673,-139.24169742298065
6.867028992,0.9997370596641771,-139.36637371824136
6.869316608,0.9997681214254441,-139.49135941526407
6.871604224,0.9998148797144151,-139.61692826622186
6.87389184,0.9998741597278344,-139.74323084000508
6.876179456,0.9999424069963866,-139.8704890697228
6.878467072,1.0000150677140809,-139.998747564574
6.880754688,1.00008760324921,-140.1280847302981
6.883042816,1.000155455026988,-140.25842874141298
6.885330432,1.0002142963519176,-140.38967738637794
6.887618048,1.0002602964213834,-140.52173284156345
6.889905664,1.0002904761659825,-140.65431497481967
6.89219328,1.0003031213214628,-140.7872153920106
6.894480896,1.0002972176130267,-140.92016406905663
6.896768512,1.0002732222638515,-141.0529090408857
6.899056128,1.000232596186534,-141.1851454395003
6.901344256,1.000178024885388,-141.316722203822
6.903631872,1.0001129021777688,-141.44740668623248
6.905919488,1.0000412933033023,-141.57710549483062
6.908207104,0.9999679336542439,-141.70576705046645
