freq,mag,phase
6.0,0.999922903299026,28.340754334191104
6.007797248,0.9998572031410419,28.143903164145815
6.015594496,0.9997993967824774,27.947874267715136
6.023391744,0.9997526106678951,27.752550073382995
6.031188992,0.9997194210761419,27.5577961599668
6.03898624,0.9997016314837968,27.36334629224766
6.046783488,0.9997003932186411,27.16902773296978
6.054580736,0.9997156285488586,26.97463097353287
6.062377984,0.9997465604123227,26.779891637608078
6.070175232,0.9997914500602724,26.584671611600527
6.07797248,0.9998479602478415,26.38869693296639
6.085769728,0.9999129097580519,26.191964962238416
6.093567488,0.9999826010403884,25.994308349201205
6.101364736,1.0000534492253776,25.79565159674938
6.109161984,1.0001214289324891,25.596074723950412
6.116959232,1.0001828228457998,25.39559830343966
6.12475648,1.0002341943765893,25.19438684249711
6.132553728,1.0002728035094952,24.992538943508873
6.140350976,1.000296427385169,24.790283208716495
6.148148224,1.0003037923829108,24.587791790737537
6.155945472,1.0002945808129453,24.385337237723796
6.16374272,1.000269141959795,24.183060620836052
6.171539968,1.0002288489521862,23.981265022065347
6.179337216,1.0001760873366319,23.780057478140723
6.187134464,1.000113662524097,23.57965695255405
6.194931712,1.0000449219979552,23.38009703020101
6.20272896,0.9999737247117091,23.181518343197524
6.210526208,0.9999039658187314,22.983890492211668
6.218323456,0.999839476248877,22.78716757776002
6.226120704,0.9997837463086497,22.59122265935262
6.233917952,0.9997399944640707,22.395970094685897
6.2417152,0.9997105224223385,22.201167900594783
6.249512448,0.9996970339998605,22.006701610193325
6.257309696,0.9997002975868858,21.812292519608786
6.265107456,0.9997200387768712,21.61771530589249
6.272904704,0.9997552323925462,21.422720376305374
6.280701952,0.9998039633991497,21.22723795257119
6.2884992,0.9998635690157973,21.030968476888557
6.296296448,0.9999308084618056,20.833790855547655
6.304093696,1.0000018516426508,20.635768175495414
6.311890944,1.000072947259027,20.436710644499904
6.319688192,1.0001401171815771,20.236767906242914
6.32748544,1.0001996405260538,20.035932979390175
6.335282688,1.0002483262539057,19.834350038248036
6.343079936,1.000283382731474,19.632189716632453
6.350877184,1.000302960822103,19.429698104006505
6.358674432,1.0003058971589258,19.227014362159608
6.36647168,1.0002920983251933,19.024397470045184
6.374268928,1.000262220427037,18.822063358778113
6.382066176,1.0002180237937068,18.62022238279131
6.389863424,1.0001617531505622,18.419049164193638
6.397660672,1.0000967017129825,18.218735603446657
6.40545792,1.00002616760224,18.019286871720343
6.413255168,0.9999543332161621,17.820812939980275
6.421052416,0.9998849879331811,17.62327082325644
6.428849664,0.9998219455206157,17.426668671799757
6.436647424,0.9997686423601451,17.230809779513844
6.444444672,0.9997281273581293,17.035570289606692
6.45224192,0.9997025759535498,16.840787289408738
6.460039168,0.9996934390080088,16.646248464613613
6.467836416,0.9997012092803654,16.45172765560932
6.475633664,0.9997255019823607,16.25692572724611
6.483430912,0.9997648572008916,16.06174707067781
6.49122816,0.99981737660932,15.865914293895358
6.499025408,0.9998799622650921,15.669319730345858
6.506822656,0.9999492076847186,15.471796618298068
6.514619904,1.0000213827712257,15.273319315585667
6.522417152,1.0000925391591717,15.07387681322727
6.5302144,1.0001586196646792,14.873523726650403
6.538011648,1.000216083719841,14.672319258344448
6.545808896,1.00026183081594,14.470393143555558
6.553606144,1.0002931570714098,14.267955180042234
6.561403392,1.0003085132812304,14.065207841115361
6.56920064,1.0003069208505342,13.862282806391969
6.576997888,1.0002884931030898,13.659547334780818
6.584795136,1.000254303629776,13.457180587028416
6.592592384,1.0002061208951416,13.255319340466356
6.600389632,1.0001465402125402,13.054193847849946
6.60818688,1.0000790631367864,12.85394080154261
6.61598464,1.0000071113843654,12.654594545937977
6.623781888,0.9999348085202754,12.456233983941605
6.631579136,0.9998660797279697,12.258845757116102
6.639376384,0.9998047002013584,12.062296675363953
6.647173632,0.9997540906061814,11.86651703724897
6.65497088,0.9997170599334131,11.671299024191068
6.662768128,0.9996955453623182,11.476520054617124
6.670565376,0.9996908639024729,11.281889695065528
6.678362624,0.9997032507604411,11.087208064105663
6.686159872,0.9997320534998152,10.892213628000158
6.69395712,0.9997757479522719,10.69678401138581
6.701754368,0.9998316524682554,10.500634610283516
6.709551616,0.9998970853867188,10.30366698429014
6.717348864,0.9999682123848928,10.105771818620385
6.725146112,1.0000412302107695,9.906897408627056
6.73294336,1.0001120772926004,9.707019373004318
6.740740608,1.0001768576670258,9.506246974543599
6.748537856,1.000232062020452,9.304661584248025
6.756335104,1.0002745662989927,9.102378526108865
6.764132352,1.0003020346522968,8.899632723187128
6.7719296,1.0003130132321854,8.696625519274901
6.779726848,1.0003067860845205,8.49358218003451
6.787524608,1.0002837619341898,8.290718356935674
6.795321856,1.000245225426594,8.08830972595521
6.803119104,1.0001931901081826,7.886440611974067
6.810916352,1.0001305631739863,7.685330388969495
6.8187136,1.000060718366256,7.485165985411705
6.826510848,0.9999874641087378,7.285948600288559
6.834308096,0.9999151090854141,7.087719438464975
6.842105344,0.9998472486160611,6.89038874003285
6.849902592,0.9997878881778969,6.693941809965923
6.85769984,0.9997401648016898,6.498199629794928
6.865497088,0.9997067505041392,6.303001731420685
6.873294336,0.9996895423598814,6.108171091143649
6.881091584,0.9996894067345876,5.913468552691178
6.888888832,0.9997064417952398,5.718628628884821
6.89668608,0.9997397418792953,5.523391865930781
6.904483328,0.999787424912782,5.32766881809188
6.912280576,0.9998468972524669,5.1312056235336545
6.920077824,0.9999148647744451,4.933835937472578
6.927875072,0.9999876317786605,4.735539459426946
6.93567232,1.00006128109573,4.536257998589957
6.943469568,1.0001315993521431,4.335965803505267
6.951266816,1.0001948770085725,4.134790372831082
6.959064576,1.000247406378917,3.9327836544277455
6.966861824,1.000286431449662,3.730211979215481
6.974659072,1.0003098932501127,3.5271606486088705
6.98245632,1.0003164327764222,3.323895246057262
6.990253568,1.0003055998251882,3.1207019119578066
6.998050816,1.0002779631036798,2.917751262960781
7.005848064,1.0002350216270304,2.7152376194794865
7.013645312,1.0001793893620647,2.5133966057542922
7.02144256,1.0001136099037042,2.3123652935159598
7.029239808,1.0000418582652946,2.1122759957759745
7.037037056,0.9999676126054298,1.9131478823623078
7.044834304,0.9998953015019829,1.715004447699525
7.052631552,0.9998286047749381,1.5178120754239135
7.0604288,0.9997713541890697,1.3214511715908286
7.068226048,0.9997269221627993,1.125770363528055
7.076023296,0.9996973331011502,0.9305715857274998
7.083820544,0.9996844833243356,0.7356701041027205
7.091617792,0.9996890510488182,0.5408146949571953
7.09941504,0.999710764578263,0.34578046548516905
7.107212288,0.9997485119511833,0.15032657877435737
7.115009536,0.9998002250291652,-0.04568491104336587
7.122806784,0.9998629259416901,-0.2425251602804207
7.130604544,0.999933439013827,-0.44027481466271495
7.138401792,1.0000075939016393,-0.639005568330787
7.14619904,1.0000814550412551,-0.8387046522989778
7.153996288,1.0001509791756666,-1.0394051494212515
7.161793536,1.0002123774735232,-1.2410042610361054
7.169590784,1.000262244747622,-1.4433820491269882
7.177388032,1.0002977473087598,-1.6463122051632428
7.18518528,1.0003169915343897,-1.849646092179089
7.192982528,1.0003187918939622,-2.053094369363051
7.200779776,1.0003031638551936,-2.2564864992445326
7.208577024,1.0002709562341865,-2.4595486453174304
7.216374272,1.00022383324994,-2.6620668893364505
7.22417152,1.000164488765385,-2.863905021440151
7.231968768,1.0000960664717657,-3.0648679102564533
7.239766016,1.0000223375750439,-3.2648968530717615
7.247563264,0.9999474503492318,-3.4639049183489306
7.255360512,0.9998754544918944,-3.6619460090803435
7.26315776,0.9998102344548023,-3.859020320953335
7.270955008,0.9997555770514889,-4.055335099880325
7.278752256,0.9997142376415492,-4.250997762561302
7.286549504,0.9996887525323822,-4.446196910431501
7.294346752,0.9996804731740031,-4.641136901565322
7.302144,0.9996896729728155,-4.836148644856345
7.30994176,0.9997161546087431,-5.031399258812884
7.317739008,0.9997583421956028,-5.227104155546573
7.325536256,0.999813916419047,-5.423469239370274
7.333333504,0.9998798418282772,-5.620709066234258
7.341130752,0.99995249245616,-5.818813410717284
7.348928,1.0000278245389296,-6.017971908030054
7.356725248,1.0001018662502688,-6.218138080395724
7.364522496,1.0001703077875546,-6.419254512668188
7.372319744,1.0002296318356272,-6.621280059190549
7.380116992,1.0002763581868301,-6.823997847442217
7.38791424,1.0003079734193008,-7.027277513660614
7.395711488,1.0003228839918634,-7.230878544785714
7.403508736,1.000319985843741,-7.434565891522254
7.411305984,1.0002995505067476,-7.638076339484638
7.419103232,1.0002628024277895,-7.841245231377538
7.42690048,1.00021153324681,-8.04381226422075
7.434697728,1.0001486125837344,-8.24561044279245
7.442494976,1.0000776829111648,-8.446505678116917
7.450292224,1.0000023939892422,-8.646444229936868
7.458089472,0.9999269570333252,-8.845336551077889
7.46588672,0.9998555193756905,-9.043269873858168
7.473683968,0.9997920390928167,-9.240296332976119
7.481481728,0.9997400584707169,-9.43652528129848
7.489278976,0.9997023335326968,-9.6321561001096
7.497076224,0.999681104447409,-9.827399438846179
7.504873472,0.9996773841775144,-10.022481494911501
7.51267072,0.9996916110978932,-10.217639378471983
7.520467968,0.9997226969541144,-10.41308830513812
7.528265216,0.9997692295410487,-10.609096117900844
7.536062464,0.9998285645165699,-10.805797221147335
7.543859712,0.9998974556938005,-11.003373405348148
7.55165696,0.9999721081581856,-11.201942598325433
7.559454208,1.0000484040424922,-11.40154271380279
7.567251456,1.0001222253342026,-11.60212710162673
7.575048704,1.000189429333422,-11.803732040513284
7.582845952,1.000246307010312,-12.006150353471627
7.5906432,1.0002897206233703,-12.209262024974255
7.598440448,1.0003173105341001,-12.412858264074131
7.606237696,1.00032768501217,-12.616696508142544
7.614034944,1.000320042375208,-12.820591696138814
7.621832192,1.0002947603089647,-13.024284500857908
7.62962944,1.0002534236476854,-13.227512148876775
7.637426688,1.0001981893141543,-13.430075473594636
7.645223936,1.0001320400211615,-13.631849983073796
7.653021696,1.0000585717686368,-13.832687242406555
7.660818944,0.9999819618251385,-14.032535182072678
7.668616192,0.9999062528557634,-14.23135238851886
7.67641344,0.9998357490702783,-14.42915451519668
7.684210688,0.99977422658407,-14.626066753119106
7.692007936,0.9997252912138269,-14.822261188860406
7.699805184,0.9996913198300048,-15.017899229399164
7.707602432,0.9996743855079171,-15.213211285481723
7.71539968,0.9996754523033108,-15.408389632315036
7.723196928,0.9996944752133673,-15.603701207532634
7.730994176,0.9997304171831117,-15.799424753965171
7.738791424,0.9997812425755077,-15.99571336013348
7.746588672,0.9998442069047001,-16.192806999907152
7.75438592,0.9999158426804274,-16.39079536808264
7.762183168,0.9999923421935986,-16.589796686505316
7.769980416,1.0000693424977136,-16.78982104244887
7.777777664,1.0001426016067543,-16.990915725628923
7.785574912,1.0002081433665326,-17.192935811344505
7.79337216,1.0002624437988945,-17.395748890248626
7.801169408,1.0003024070311317,-17.599229726967874
7.808966656,1.0003258009251907,-17.803158600867466
7.816763904,1.0003314282741347,-18.0072669220318
7.824561152,1.000318925244216,-18.211334857374027
7.832358912,1.0002888612708203,-18.4151617961879
7.84015616,1.0002429363964107,-18.618448154655983
7.847953408,1.0001836679892828,-18.821032344607502
7.855750656,1.000114375773252,-19.02277549000024
7.863547904,1.0000387903230952,-19.223546884209593
7.871345152,0.9999610363867025,-19.42325114794139
7.8791424,0.9998853883763389,-19.62197995427994
7.886939648,0.9998160777095266,-19.81971033211115
7.894736896,0.9997569047092495,-20.01654842581687
7.902534144,0.999711071772676,-20.212697928569323
7.910331392,0.9996811749666147,-20.408366743950864
7.91812864,0.9996688277386208,-20.60371003270046
7.925925888,0.9996747239236444,-20.79904506990842
7.933723136,0.9996986509922378,-20.994589433804745
7.941520384,0.9997392370390811,-21.190532808641823
7.949317632,0.999794353751281,-21.387201309684393
7.95711488,0.9998607871972396,-21.584633144773505
7.964912128,0.9999350452625249,-21.783066912466452
7.972709376,1.0000130064768704,-21.982500202109996
7.980506624,1.0000904698805224,-22.18300403491784
7.988303872,1.0001629563572805,-22.38453983192993
7.99610112,1.000226717071763,-22.587014455507408
8.00389888,1.0002781755786667,-22.7902499364586
8.011696128,1.000314374788635,-22.994099755957215
8.019493376,1.0003333576529891,-23.19830720419445
8.027290624,1.0003341581847778,-23.402671088241654
8.035087872,1.0003166244670558,-23.6069339994737
8.04288512,1.0002816016442395,-23.810892025076555
8.050682368,1.0002313880027427,-24.01424041470676
8.058479616,1.0001683512092328,-24.216840881387064
8.066276864,1.00009595863465,-24.4185310704828
8.074074112,1.000018488330473,-24.619194706167757
8.08187136,0.9999397668524792,-24.81883039044475
8.089668608,0.9998644652129712,-25.01742418811755
8.097465856,0.9997965352804338,-25.21507965822166
8.105263104,0.9997399089932644,-25.41187577459311
8.113060352,0.9996974752025162,-25.608014218044406
8.1208576,0.999671827682325,-25.803684997161525
8.128654848,0.9996642280639317,-25.999108940526696
8.136452096,0.9996751930887211,-26.19461407014441
8.144249344,0.9997040213823168,-26.390362744973853
8.152046592,0.9997493458375956,-26.58662784237979
8.15984384,0.9998085285550106,-26.783614782753325
8.167641088,0.999878305398607,-26.981447260445186
8.175438848,0.9999549463217058,-27.18030069486144
8.183236096,1.0000341589663384,-27.380219514215863
8.191033344,1.0001117134115067,-27.581198105047456
8.198830592,1.000183307314221,-27.783219150389723
8.20662784,1.0002448147480834,-27.98609912804549
8.214425088,1.000293159093218,-28.18976776413203
8.222222336,1.0003253565833425,-28.393996834431228
8.230019584,1.0003398075635548,-28.59849819139943
8.237816832,1.000335664270972,-28.80309937675441
8.24561408,1.0003131322415582,-29.007580138130802
8.253411328,1.000273329410242,-29.211581442845652
8.261208576,1.000218641155176,-29.414985521117053
8.269005824,1.0001518543554506,-29.617591712639406
8.276803072,1.0000768516936194,-29.819208511086423
8.28460032,0.9999974169320803,-30.019820309493888
8.292397568,0.9999181867228869,-30.2193501183907
8.300194816,0.9998435238356796,-30.41784060661956
8.307992064,0.9997773362997335,-30.6153864211062
8.315789312,0.9997234597430699,-30.812169900445042
8.32358656,0.9996847405874371,-31.008258528779148
8.331383808,0.9996635099921816,-31.20398369216661
8.339181056,0.9996607335624366,-31.39956544970569
8.346978304,0.9996766612463569,-31.595210109454346
8.354776064,0.9997106336448319,-31.791210093803397
8.362573312,0.9997604012230967,-31.987776773265853
8.37037056,0.9998235721154922,-32.185150406363064
8.378167808,0.9998967074561184,-32.38340294812028
8.385965056,0.9999754081946436,-32.5827178701724
8.393762304,1.0000558489858338,-32.78310829704667
8.401559552,1.0001332075399656,-32.98455851143163
8.4093568,1.0002035222865022,-33.18703258698157
8.417154048,1.0002625690014602,-33.39038895635759
8.424951296,1.00030747882868,-33.594436763244026
8.432748544,1.0003355671811542,-33.79900751659872
8.440545792,1.0003451729144135,-34.00384855362229
8.44834304,1.0003360235893675,-34.20869749739974
8.456140288,1.0003083906930892,-34.41328894057735
8.463937536,1.0002638862113704,-34.61742598955833
8.471734784,1.0002047482391216,-34.82085843298138
8.479532032,1.0001345588318897,-35.02341937043083
8.48732928,1.0000567609101012,-35.22501384279795
8.495126528,0.9999759385138571,-35.42552584124506
8.502923776,0.9998963042777743,-35.624954686511586
8.510721024,0.9998225005123128,-35.823371180449804
8.518518272,0.9997583767970273,-36.02084240020394
8.526316032,0.9997074653073127,-36.21755650718498
8.53411328,0.9996728239120685,-36.41366997203939
8.541910528,0.9996561437497856,-36.60946907504929
8.549707776,0.9996584842291848,-36.80512805095971
8.557505024,0.9996795365517714,-37.00101384044196
8.565302272,0.9997183658699115,-37.19725877053403
8.57309952,0.9997727606974259,-37.39415641624363
8.580896768,0.999839883074909,-37.59191641895858
8.588694016,0.9999159313004277,-37.790614205618574
8.596491264,0.9999967124804365,-37.990381269898776
8.604288,1.000077875585683,-38.1912611528059
8.61208576,1.0001547327187938,-38.39324272299784
8.61988352,1.0002233141197263,-38.59616788222718
8.627680256,1.0002798575685716,-38.79997573355878
8.635478016,1.0003210329480858,-39.00443408538677
8.643274752,1.0003448009659226,-39.209365153360814
8.651072512,1.0003495091034067,-39.41448864745286
8.658869248,1.0003352480821253,-39.61955490069079
8.666667008,1.0003024337837574,-39.82430892944451
8.674463744,1.000253098226829,-40.02853038773224
8.682261504,1.0001897666738038,-40.23199736444429
8.69005824,1.0001161402812473,-40.434542245221685
8.697856,1.0000359177302138,-40.636059816027974
8.705652736,0.9999539059501039,-40.8364803638341
8.713450496,0.9998742640979713,-41.03579790295077
8.721247232,0.9998015446024272,-41.23410136228046
8.729044992,0.9997397099165597,-41.4315343500153
8.736841728,0.9996921790606128,-41.62818458407594
8.744639488,0.9996616337146685,-41.82435485476991
8.752436224,0.9996497513314896,-42.020231389149416
8.760233984,0.9996571153820569,-42.21604913919241
8.76803072,0.9996833527405621,-42.41215118646066
8.77582848,0.9997272193171791,-42.60868514594457
8.78362624,0.9997862252088845,-42.80595144002293
8.791422976,0.9998570490475415,-43.00407654263295
8.799220736,0.9999359894856934,-43.2032491743057
8.807017472,1.0000184063771633,-43.40352167635588
8.814815232,1.000100117963384,-43.60489761510185
8.822611968,1.0001764496304077,-43.80735443058648
8.830409728,1.000243088497578,-44.010777240277314
8.838206464,1.000296581634607,-44.215043459509786
8.846004224,1.000333932619786,-44.4199009943024
8.85380096,1.0003530846978979,-44.62517317193117
8.86159872,1.0003527842082232,-44.830579049209916
8.869395456,1.000333054598896,-45.03585804161292
8.877193216,1.0002952448955493,-45.240770929869846
8.884989952,1.0002411452430782,-45.44505295148801
8.892787712,1.0001738026810023,-45.64852622918765
8.900584448,1.0000968959802226,-45.851019334446626
8.908382208,1.0000146360879343,-46.05244161739017
8.916178944,0.99993146575927,-46.25281210593383
8.923976704,0.9998520775523062,-46.45203227110631
8.93177344,0.9997806919576224,-46.65028079230657
8.9395712,0.9997214377927123,-46.847641417654216
8.947367936,0.9996776302464931,-47.04427611473317
8.955165696,0.999651375729213,-47.24049212147684
8.962963456,0.9996444440431838,-47.43643888754435
8.970760192,0.9996570206308615,-47.63245253743267
8.978557952,0.9996886957265106,-47.828769349156694
8.986354688,0.9997374737065087,-48.025628425895306
8.994152448,0.9998008286337959,-48.223272264057535
9.001949184,0.9998753424559931,-48.42184207067358
9.009746944,0.9999568364865683,-48.62148702271227
9.01754368,1.0000408277043338,-48.822210861415684
9.02534144,1.0001226625731288,-49.02412091698573
9.033138176,1.0001979480427814,-49.227082824065995
9.040935936,1.0002626663012997,-49.43098593288158
9.048732672,1.0003128155768237,-49.63569377034555
9.056530432,1.0003459814831472,-49.84096853721034
9.064327168,1.0003602548719461,-50.04655717765053
9.072124928,1.0003547999182907,-50.252258077751506
9.079921664,1.000329930696176,-50.45772797750278
9.087719424,1.0002868236962583,-50.66275621440381
9.09551616,1.0002280008470061,-50.867108270875256
9.10331392,1.000156721554492,-51.07058870324309
9.111110656,1.0000767249674505,-51.27307607969205
9.118908416,0.9999924642496949,-51.47443608104187
9.126705152,0.9999085700206267,-51.6746751302615
