freq,mag,phase
6.0,0.9998979813672842,118.7332627338757
6.002285568,0.9997353033962235,118.56753531950804
6.004571648,0.99959072666911,118.40406564923383
6.006857216,0.9994719595874897,118.24251538837198
6.009142784,0.9993864765037215,118.08246724456865
6.011428352,0.9993396498599163,117.92341044867374
6.013714432,0.999334535672911,117.76475009620759
6.016,0.9993714257112768,117.60588695426448
6.018285568,0.9994480581578679,117.44620152397444
6.020571648,0.9995595614605849,117.2851943576757
6.022857216,0.999698898237548,117.12235693663776
6.025142784,0.9998573221223678,116.9573866660995
6.027428352,1.0000246952536662,116.79009806046419
6.029714432,1.000190671849605,116.62039219689817
6.032,1.0003445384344245,116.4483783343933
6.034285568,1.0004767360662323,116.27431715204735
6.036571648,1.000578957714239,116.09857574030315
6.038857216,1.0006446195268366,115.92164874565461
6.041142784,1.0006697295616498,115.74405533856715
6.043428352,1.000652554153481,115.56644517777863
6.045714432,1.0005941984147466,115.389404483134
6.048,1.0004983095965634,115.21347674686733
6.050285568,1.0003711551129741,115.0391973766965
6.052571648,1.000220323994427,114.8669350537877
6.054857216,1.0000555875425075,114.69698599745874
6.057142784,0.999887300528194,114.5294791338644
6.059428352,0.999726113397066,114.36437552024898
6.061714432,0.9995820396015804,114.20152707240166
6.064,0.9994643716233976,114.04057756038858
6.066285568,0.9993805105121931,113.88113287995182
6.068571648,0.9993356082728451,113.7226268313156
6.070857216,0.9993327426855211,113.56450800727646
6.073142784,0.9993719850418201,113.40610680054876
6.075428352,0.9994509494841769,113.24691050851526
6.077714432,0.9995645455380383,113.0863066534736
6.08,0.9997057383544135,112.92388217740786
6.082285568,0.9998655447613592,112.75930401961396
6.084571648,1.0000337736658367,112.59234179038215
6.086857216,1.0002000549992558,112.42299484564657
6.089142784,1.0003537703590322,112.25133699769559
6.091428352,1.0004851054054091,112.0776402555456
6.093714432,1.0005858884029668,111.90226451502689
6.096,1.0006497508161425,111.72571340715909
6.098285568,1.0006728108247513,111.54856448243305
6.100571648,1.000653205880267,111.37140645716534
6.102857216,1.000592506910073,111.19483359181788
6.105142784,1.0004944461578131,111.01944042175546
6.107428352,1.000365096888669,110.84570679124276
6.109714432,1.0002127054762555,110.6740371729355
6.112,1.0000468850071849,110.50470370980281
6.114285568,0.9998779587456814,110.33778905057379
6.116571648,0.9997166566490612,110.17331959653539
6.118857216,0.9995731665871378,110.01106386603313
6.121142784,0.9994566560677226,109.85071724370037
6.123428352,0.9993743522997016,109.69184214897234
6.125714432,0.9993314680230745,109.53389028443688
6.128,0.9993308846068182,109.37628950099253
6.130285568,0.9993725421041862,109.21839288577094
6.132571648,0.9994538380854453,109.05964446018811
6.134857216,0.999569694601192,108.89946544109904
6.137142784,0.9997126380206756,108.73742413211036
6.139428352,0.999873866991345,108.57321806615386
6.141714432,1.0000430150668098,108.40661545190153
6.144,1.0002095482370685,108.23760125991832
6.146285568,1.000362908618386,108.06627954094462
6.148571648,1.0004934082440222,107.89291512439165
6.150857216,1.000592806568766,107.71793345110088
6.153142784,1.0006548562281876,107.54175709077805
6.155428352,1.0006756164450568,107.36502541374665
6.157714432,1.0006537134279778,107.18829818047294
6.16,1.000590540030866,107.01223164056594
6.162285568,1.0004901263632908,106.83734950800363
6.164571648,1.000358776002694,106.66415924799826
6.166857216,1.000204732468421,106.49307627636269
6.169142784,1.0000377025020029,106.32431483144899
6.171428352,0.9998681828119893,106.15802726486879
6.173714432,0.9997069599206346,105.99415125507976
6.176,0.9995641298302645,105.83251346320066
6.178285568,0.999448704687203,105.6727680007588
6.180571648,0.9993681368271685,105.51446738032762
6.182857216,0.9993274402948779,105.35706653445979
6.185142784,0.9993291157624449,105.19995256702522
6.187428352,0.9993732693314611,105.04254397491293
6.189714432,0.9994570033273557,104.88422564953055
6.192,0.9995749482763605,104.72446070061072
6.194285568,0.9997198722099413,104.56281804498371
6.196571648,0.9998825027104512,104.39895016803081
6.198857216,1.0000525502534514,104.23267388273884
6.201142784,1.0002193727386879,104.06398980225549
6.203428352,1.0003722962613295,103.89301046679724
6.205714432,1.0005018685847724,103.71998770685202
6.208,1.000599760143591,103.54532830103496
6.210285568,1.0006599027340577,103.3695550510992
6.212571648,1.0006783267605497,103.1932474604753
6.214857216,1.0006540100042172,103.01695527183878
6.217142784,1.0005885163328314,102.84133917516618
6.219428352,1.0004857841234092,102.66698683616904
6.221714432,1.000352374792231,102.4943319003953
6.224,1.0001966464025525,102.32381223099323
6.226285568,1.0000284783159334,102.15566789762369
6.228571648,0.9998584323728441,101.9899643981734
6.230857216,0.9996971798145156,101.82670674824162
6.233142784,0.9995549623358286,101.66565134162099
6.235428352,0.9994408230997264,101.5064997096034
6.237714432,0.9993620563101325,101.34875398212635
6.24,0.9993234584793181,101.1918898946037
6.242285568,0.9993275875556084,101.03528677975386
6.244571648,0.9993742283927701,100.87834956818484
6.246857216,0.9994603571340924,100.72046105780387
6.249142784,0.999580528672335,100.56107834812532
6.251428352,0.9997273211154546,100.39979906701434
6.253714432,0.9998913345447287,100.23627343943602
6.256,1.0000622853515424,100.07032478124965
6.258285568,1.0002292982893473,99.90195890634726
6.260571648,1.000381932814593,99.73127732698734
6.262857216,1.0005104445039008,99.5585956757893
6.265142784,1.0006068010043496,99.38427210265523
6.267428352,1.0006649674779855,99.20885718109147
6.269714432,1.0006811330162453,99.03293590809534
6.272,1.0006544419844636,98.85711462970231
6.274285568,1.0005862655228521,98.6819793243047
6.276571648,1.0004811771952415,98.50809989736956
6.278857216,1.0003456758848248,98.33600256979743
6.281142784,1.0001882746186352,98.16603306830827
6.283428352,1.0000189481353907,97.99845617582668
6.285714432,0.999848375245861,97.83335690085116
6.288,0.9996871783593405,97.67070638994925
6.290285568,0.9995458178123808,97.51025055289712
6.292571648,0.9994329896218722,97.35165445538215
6.294857216,0.999355954001252,97.19447781814772
6.297142784,0.9993195096075881,97.03813260717246
6.299428352,0.9993261552982557,96.88202744505425
6.301714432,0.9993752335109571,96.72552877522389
6.304,0.9994638988171193,96.56804730729164
6.306285568,0.9995863968077634,96.40907112657472
6.308571648,0.9997350043369755,96.2481307960272
6.310857216,0.999900430616264,96.084921026627
6.313142784,1.0000722235367945,95.91928017334354
6.315428352,1.0002394729976032,95.75120009794524
6.317714432,1.0003915737672344,95.58083932539758
6.32,1.000519115778519,95.40847285553613
6.322285568,1.0006139097800997,95.23449221946895
6.324571648,1.0006699627320812,95.05943987075929
6.326857216,1.0006838132022946,94.88390398893836
6.329142784,1.000654504315301,94.70847048409196
6.331428352,1.0005838172532389,94.53380788455172
6.333714432,1.0004764257811296,94.36044292952971
6.336,1.0003387056129713,94.18887625014996
6.338285568,1.0001797198039273,94.019453797781
6.340571648,1.0000092185378706,93.85246031652213
6.342857216,0.9998380700098198,93.68795520081281
6.345142784,0.9996771700855343,93.52587076345282
6.347428352,0.9995364352568042,93.3659882324312
6.349714432,0.9994250561872335,93.20797529956616
6.352,0.9993498089019655,93.05133818025811
6.354285568,0.9993157463218508,92.89548489565796
6.356571648,0.9993248461614439,92.73986507013731
6.358857216,0.9993765283882781,92.58380450036093
6.361142784,0.9994676829174877,92.42674260052384
6.363428352,0.9995925096483871,92.26812272100223
6.365714432,0.9997430680403773,92.10750111817569
6.368,0.9999098893258999,91.94461437273137
6.370285568,1.0000824712220149,91.7792695897557
6.372571648,1.000249807210603,91.61148379453489
6.374857216,1.000401553489723,91.44141171539277
6.377142784,1.0005279252332335,91.26932826285935
6.379428352,1.0006211644328107,91.09566275616827
6.381714432,1.0006750083716236,90.9209619841406
6.384,1.0006864247019231,90.7458073533285
6.386285568,1.0006545212423275,90.57078353265351
6.388571648,1.0005812723710998,90.3965854242716
6.390857216,1.0004713488546877,90.22369046926184
6.393142784,1.0003315854427273,90.05263087452418
6.395428352,1.0001709774542407,89.88377173391919
6.397714432,0.9999994150264747,89.71732266461383
6.4,0.9998277170932981,89.55339953557396
6.402285568,0.9996669654593826,89.39189613661534
6.404571648,0.9995271019807259,89.23260275927072
6.406857216,0.9994170901083013,89.07514301219683
6.409142784,0.9993438633788414,88.91902550724707
6.411428352,0.9993120370739398,88.76368506686168
6.413714432,0.9993237325054616,88.60851188869037
6.416,0.9993779771168887,88.45287882083873
6.418285568,0.9994717592809329,88.29618380284751
6.420571648,0.9995988481546135,88.13792337664047
6.422857216,0.9997512399127263,87.97763097020601
6.425142784,0.9999195244544269,87.8150313215296
6.427428352,1.0000928962753475,87.64996044142573
6.429714432,1.0002604395979322,87.48244239730667
6.432,1.000411542602222,87.31263406137333
6.434285568,1.0005367416040822,87.14084227627788
6.436571648,1.0006281820567853,86.96749727811853
6.438857216,1.0006799848683778,86.79310937077173
6.441142784,1.0006888406429468,86.6183080909697
6.443428352,1.0006543514403323,86.4437188652276
6.445714432,1.000578472814229,86.26993172162177
6.448,1.0004659751769238,86.09752613501512
6.450285568,1.0003241555742886,85.92697302327414
6.452571648,1.0001618540476231,85.75863606568149
6.454857216,0.9999892090727809,85.59275541166285
6.457142784,0.9998171029192973,85.42939912421065
6.459428352,0.999656550058547,85.26846243746812
6.461714432,0.9995175823998608,85.10972179627984
6.464,0.9994090437707551,84.95279142000005
6.466285568,0.9993377309082995,84.79719682823747
6.468571648,0.9993083367791683,84.64234662436633
6.470857216,0.9993225482082679,84.48762023953583
6.473142784,0.9993796204125787,84.3323836317412
6.475428352,0.9994758775140774,84.1760684004447
6.477714432,0.9996053962932969,84.0181484977564
6.48,0.9997597506860514,83.85814257047477
6.482285568,0.9999293296396085,83.69582602478144
6.484571648,1.0001034007331306,83.53101484443289
6.486857216,1.000271016736784,83.36376340179282
6.489142784,1.000421618640183,83.19418913141537
6.491428352,1.0005456108297424,83.0226727277309
6.493714432,1.000635212123813,82.84960214267721
6.496,1.0006847410767035,82.67553929190848
6.498285568,1.0006911611545073,82.50109434102347
6.500571648,1.0006538790852983,82.3268799071125
6.502857216,1.0005754034161876,82.15353938167394
6.505142784,1.0004604730728444,81.98158741396327
6.507428352,1.0003165147544817,81.81153188190666
6.509714432,1.0001524609656949,81.64372824762445
6.512,0.9999786723455786,81.47838051270679
6.514285568,0.9998062769564801,81.31557916575035
6.516571648,0.9996459617761215,81.15520225310608
6.518857216,0.9995079076333511,80.99700087690825
6.521142784,0.9994009247804782,80.84059454758112
6.523428352,0.9993317275354746,80.68550177170972
6.525714432,0.9993047558598965,80.5311243410955
6.528,0.9993217035132784,80.37681189731029
6.530285568,0.9993813998993583,80.2219636352082
6.532571648,0.9994803890805849,80.06601139955139
6.534857216,0.9996120954688805,79.90839226162794
6.537142784,0.9997684236256403,79.74867292756235
6.539428352,0.9999393702066594,79.58660363331583
6.541714432,1.0001142391553037,79.42204636636014
6.544,1.0002819328779124,79.25502431683866
6.546285568,1.0004318035612998,79.08570838282186
6.548571648,1.0005545320940854,78.91443271589128
6.550857216,1.0006422777310546,78.7416395460999
6.553142784,1.0006895613413163,78.56787968197152
6.555428352,1.0006932700359634,78.39377067786364
6.557714432,1.000653329015361,78.2199263530283
6.56,1.0005720785059857,78.0469801015889
6.562285568,1.0004546659715252,77.87549790605546
6.564571648,1.0003085195513794,77.70593219603819
6.566857216,1.0001428152558878,77.53864375492948
6.569142784,0.9999679890413894,77.37381596889394
6.571428352,0.9997951492661981,77.21155412529274
6.573714432,0.9996352067269291,77.05172666458037
6.576,0.9994980875209826,76.89406730354735
6.578285568,0.9993927683501362,76.73815820122415
6.580571648,0.9993256218198181,76.5835552377304
6.582857216,0.9993012029199354,76.42961487317925
6.585142784,0.9993208662529398,76.27571295117222
6.587428352,0.9993833619031726,76.1212597547578
6.589714432,0.9994849580176327,75.96564018744816
6.592,0.9996191269307446,75.80828489946073
6.594285568,0.9997772859362696,75.64884484616111
6.596571648,0.999949655211707,75.48700181162062
6.598857216,1.0001251530687172,75.32267754702676
6.601142784,1.0002928755785931,75.15585956202321
6.603428352,1.000442167334111,74.98676662564549
6.605714432,1.0005635298208273,74.8157221585737
6.608,1.0006493486842785,74.64317754893239
6.610285568,1.0006942909826153,74.46971353999002
6.612571648,1.000695365815463,74.29592159793069
6.614857216,1.0006525753372875,74.12243640962747
6.617142784,1.0005686094879007,73.94989845392077
6.619428352,1.0004486417367897,73.77885014343182
6.621714432,1.0003003150431755,73.60974631611555
6.624,1.0001329800385699,73.44296431837759
6.626285568,0.9999571539330364,73.27866366548338
6.628571648,0.999783907867768,73.1169249187323
6.630857216,0.9996243419733801,72.95759549366952
6.633142784,0.9994882834377754,72.80046005469407
6.635428352,0.9993845322275929,72.64508228406244
6.637714432,0.999319695260298,72.49093414902963
6.64,0.9992977480205965,72.33740914776854
6.642285568,0.9993202514759867,72.18392999275493
6.644571648,0.9993856201436584,72.02982031532888
6.646857216,0.9994898802620988,71.87449244371032
6.649142784,0.999626347875763,71.71742195841239
6.651428352,0.9997865017971486,71.55822012919228
6.653714432,0.9999601711602875,71.39660585774476
6.656,1.0001363337140075,71.23246697048761
6.658285568,1.0003040457689694,71.06585472587011
6.660571648,1.0004525778405993,70.8969436302134
6.662857216,1.000572526467818,70.72612291785852
6.665142784,1.0006564237166742,70.55381729399052
6.667428352,1.0006988925666638,70.3806242700343
6.669714432,1.0006972556166303,70.2071410231888
6.672,1.0006516254483095,70.03403247663606
6.674285568,1.000564803610911,69.8618487263128
6.676571648,1.000442323093234,69.69122258483235
6.678857216,1.0002918609935176,69.52258851561712
6.681142784,1.0001228435646228,69.35629147382879
6.683428352,0.9999460092281498,69.19248498154533
6.685714432,0.9997724968590228,69.03126619503315
6.688,0.9996131995648438,68.87247079721134
6.690285568,0.9994783872634326,68.71582199451267
6.692571648,0.9993764557214931,68.56089181200007
6.694857216,0.9993137796996391,68.40720928835515
6.697142784,0.9992944867024786,68.2541174198918
6.699428352,0.9993197620696409,68.10099583090972
6.701714432,0.9993880101281197,67.94720737881651
6.704,0.9994949838607301,67.79216006435696
6.706285568,0.9996338443719257,67.63535845404436
6.708571648,0.9997958754143113,67.47638028715609
6.710857216,0.9999708102308179,67.31496078392077
6.713142784,1.0001477545719262,67.15100126424268
6.715428352,1.0003153522118624,66.98454912204315
6.717714432,1.0004631014332668,66.8158413796265
6.72,1.0005816493613238,66.6452076066647
6.722285568,1.0006634513628396,66.47313435835984
6.724571648,1.000703416296426,66.30018524386736
6.726857216,1.0006990345033286,66.12699210022726
6.729142784,1.0006504746170828,65.95420068922675
6.731428352,1.0005608689796466,65.782411563287
6.733714432,1.0004357868037674,65.6121932418736
6.736,1.0002831348116126,65.44399151117243
6.738285568,1.0001125555681214,65.27816159019612
6.740571648,0.9999347290911508,65.11485604576058
6.742857216,0.9997609516629636,64.9541238025151
6.745142784,0.9996021605059685,64.79580772225951
6.747428352,0.9994684929999291,64.6396591158974
6.749714432,0.9993682130803522,64.48520654332646
6.752,0.9993079585046187,64.33193588353716
6.754285568,0.9992913100464369,64.17923210019865
6.756571648,0.9993194445981272,64.02647449291047
6.758857216,0.9993906636760358,63.87298943935304
6.761142784,0.9995003149932307,63.718221137751115
6.763428352,0.9996415762469568,63.5616437593045
6.765714432,0.9998055827864344,63.402843804474685
6.768,0.9999818636069852,63.24161767962944
6.770285568,1.0001593354621585,63.07780698851428
6.772571648,1.0003268282907833,62.91153007301035
6.774857216,1.0004736985432756,62.74297120453951
6.777142784,1.0005907266481908,62.57249450314296
6.779428352,1.0006704168908163,62.4006361185216
6.781714432,1.000707868784392,62.22792513269359
6.784,1.0007006582633726,62.055007955912714
6.786285568,1.0006492242129181,61.882526196813
6.788571648,1.0005567463507534,61.711074971950694
6.790857216,1.0004290667197864,61.54127257301993
6.793142784,1.0002742739026238,61.37350695968593
6.795428352,1.0001020129712397,61.20812232813813
6.797714432,0.9999232003100266,61.04528197682038
6.8,0.9997492130855742,60.885043258815976
6.802285568,0.9995909131875149,60.7272156715852
6.804571648,0.9994584995155488,60.571506278428366
6.806857216,0.9993600960834937,60.41749774898761
6.809142784,0.9993021864841608,60.264654021909465
6.811428352,0.9992882719984901,60.112325220796926
6.813714432,0.9993193582622869,59.9598772928502
6.816,0.9993935074437732,59.8066933130091
6.818285568,0.9995059167497117,59.65217022314107
6.820571648,0.9996496173345506,59.49578998343466
6.822857216,0.9998155094695366,59.33719312934202
6.825142784,0.9999931305722204,59.17609299523132
6.827428352,1.0001711592094045,59.01244359049097
6.829714432,1.0003384288516581,58.84626412005174
6.832,1.0004844289802644,58.67785262497814
6.834285568,1.000599840455123,58.507559298601684
6.836571648,1.000677454876142,58.33585650972171
6.838857216,1.0007122931529588,58.163378190892
6.841142784,1.0007021482586624,57.990713560092196
6.843428352,1.0006476894510283,57.81854223794878
6.845714432,1.0005523533201968,57.64742792475068
6.848,1.0004220850126448,57.47798045303051
6.850285568,1.0002650609193815,57.31062922318332
6.852571648,1.0000912417334107,57.14568794297273
6.854857216,0.9999115727139604,56.98332900130067
6.857142784,0.9997373843343306,56.82352741535228
6.859428352,0.9995796754557446,56.66615857423916
6.861714432,0.9994484538808422,56.5109020459431
6.864,0.9993520392093543,56.357322974694114
6.866285568,0.9992964273985225,56.20485351523629
6.868571648,0.9992853950973356,56.0528887294133
6.870857216,0.9993194357331657,55.90075998091007
6.873142784,0.9993965834182745,55.747834550773426
6.875428352,0.9995118047541985,55.59354007890633
6.877714432,0.9996579170458674,55.437345125719744
6.88,0.9998257422627587,55.27887611106759
6.882285568,1.000004515966553,55.117920772404034
6.884571648,1.0001831689161071,54.95435442422817
6.886857216,1.00035020585304,54.788319152637605
6.889142784,1.0004952485492986,54.62001634863901
6.891428352,1.0006090454357635,54.449863702924326
6.893714432,1.000684349533494,54.2783453490082
6.896,1.0007165738957142,54.10604162289325
6.898285568,1.0007035710755157,53.93362349133961
6.900571648,1.000646068670859,53.761709278097996
6.902857216,1.0005477785283308,53.590952074044885
6.905142784,1.0004149325819245,53.42186590646788
6.907428352,1.00025571664101,53.25490863737268
6.909714432,1.0000802417069186,53.09037910916489
6.912,0.9998997153755491,52.92844496816131
6.914285568,0.9997253721016691,52.76910797495517
6.916571648,0.9995683033095664,52.612185729273904
6.918857216,0.9994383607848348,52.45735138642428
6.921142784,0.9993439303741108,52.3041684238237
6.923428352,0.9992909104274346,52.152077428650315
6.925714432,0.9992826741529344,52.00044338179538
6.928,0.9993198049405392,51.84860209649946
6.930285568,0.9993999058430907,51.6959277940745
6.932571648,0.999517860872359,51.541817112204505
6.934857216,0.9996664475534827,51.385785292998776
6.937142784,0.9998360880844983,51.22745859302584
6.939428352,1.0000161928267721,51.06657845912776
6.941714432,1.0001952551191005,50.90313801793249
6.944,1.00036206628745,50.73716723151179
6.946285568,1.0005060928097531,50.56898528776762
