freq,mag,phase
6.0,1.0001936641721756,-99.39673338140355
6.005099008,1.0002189463110194,-99.6413371407697
6.010197504,1.0002299229422846,-99.88612842564338
6.015296512,1.0002277519301979,-100.13103274761524
6.020395008,1.0002123883981053,-100.37583328343374
6.025494016,1.0001846940592387,-100.6203140973035
6.030592512,1.0001465541267889,-100.86434808540412
6.03569152,1.0000998366642295,-101.10777726810662
6.040790528,1.0000474585976318,-101.35052926618603
6.045889024,0.9999924088177393,-101.59257210479527
6.050988032,0.999938054020262,-101.83381033311838
6.056086528,0.9998873817572596,-102.07434505121105
6.061185536,0.9998434315444914,-102.3142321963455
6.066284032,0.9998088107588288,-102.55358208829773
6.07138304,0.9997856153861937,-102.7924885856655
6.076482048,0.9997748970299898,-103.03121727762083
6.081580544,0.9997776780980921,-103.26985781879996
6.086679552,0.9997936141365346,-103.50864892276611
6.091778048,0.999821767474066,-103.7477747249763
6.096877056,0.9998604790031627,-103.98736882735933
6.101975552,0.9999075833819018,-104.22755408287337
6.10707456,0.999960189105821,-104.4684226135062
6.112173568,1.000015343099569,-104.71009011098121
6.117272064,1.00006981895177,-104.95248988599548
6.122371072,1.000120331791451,-105.19564135916403
6.127469568,1.000164059951168,-105.43946966972388
6.132568576,1.0001983777448056,-105.68383370887535
6.137667072,1.0002212390143523,-105.92860797018555
6.14276608,1.0002313505003728,-106.17362924407469
6.147865088,1.0002280362169313,-106.41870838489011
6.152963584,1.000211606919144,-106.66364259886645
6.158062592,1.000182957934999,-106.90825677395675
6.163161088,1.0001437687869437,-107.15244939289248
6.168260096,1.0000962846675399,-107.39598662350248
6.173358592,1.0000434034835892,-107.63887537105462
6.1784576,0.9999881046756192,-107.88097819337293
6.183556608,0.9999336397856521,-108.12233025588488
6.188655104,0.999883195216289,-108.36296133923348
6.193754112,0.999839676528475,-108.60294512777094
6.198852608,0.9998057744247435,-108.84241846075108
6.203951616,0.9997833018691252,-109.08144703070201
6.209050112,0.999773723816682,-109.32030306344959
6.21414912,0.9997774963711732,-109.55913271637164
6.219248128,0.9997944529533337,-109.79806639245984
6.224346624,0.9998236636453931,-110.03736774730753
6.229445632,0.9998632729447842,-110.27712589934383
6.234544128,0.9999111407807708,-110.5175496518692
6.239643136,0.9999643525058678,-110.75862695993972
6.244741632,1.000019792685828,-111.00048103047305
6.24984064,1.0000743555415377,-111.24313980000917
6.254939648,1.000124667450906,-111.48651943678104
6.260038144,1.000167939255843,-111.73052560785446
6.265137152,1.0002014558176706,-111.97511784744759
6.270235648,1.0002233984664948,-112.22009702607505
6.275334656,1.000232586827843,-112.46527337726899
6.280433152,1.000228242582243,-112.71052136024412
6.28553216,1.000210726557728,-112.95560421006881
6.290631168,1.000181043218984,-113.2003805219518
6.295729664,1.000140900263636,-113.44465207805385
6.300828672,1.0000927843867127,-113.68831153717201
6.305927168,1.0000392576498072,-113.93129671224607
6.311026176,0.9999836840570723,-114.17351421627893
6.316124672,0.9999292113543415,-114.4149509589059
6.32122368,0.9998789132023582,-114.65568840214347
6.326322688,0.9998359067712841,-114.89576681866878
6.331421184,0.9998026879945807,-115.1353310284383
6.336520192,0.9997811378041768,-115.37449973006929
6.341618688,0.9997725378588619,-115.61346406191379
6.346717696,0.9997773844856428,-115.85242400866115
6.351816192,0.9997954489275425,-116.09156493308681
6.3569152,0.9998256686165338,-116.33101565910655
6.362014208,0.9998662601197212,-116.57094114387627
6.367112704,0.9999148124621492,-116.81154485398311
6.372211712,0.9999684717038776,-117.05287089214615
6.377310208,1.0000242938475967,-117.29491735210182
6.382409216,1.0000788062622257,-117.53778961834682
6.387507712,1.000128874798555,-117.781380761267
6.39260672,1.0001717152702294,-118.02563535807772
6.397705728,1.0002046207761806,-118.27037386733413
6.402804224,1.0002256786512926,-118.51552329374256
6.407903232,1.0002337617944195,-118.76090539834993
6.413001728,1.0002283659696247,-119.00632160543844
6.418100736,1.000209803644704,-119.25153788201308
6.423199744,1.0001790324679214,-119.49642021492409
6.42829824,1.0001380551444943,-119.7408255556589
6.433397248,1.000089118131087,-119.9846032404052
6.438495744,1.0000351035729504,-120.22766055329544
6.443594752,0.9999792159400127,-120.46994948272852
6.448693248,0.9999246709348015,-120.71148149080702
6.453792256,0.9998746822835076,-120.95231083444872
6.458891264,0.9998322141565114,-121.19248984879881
6.46398976,0.9997995486685983,-121.43212044330478
6.469088768,0.9997789108512625,-121.67141778709028
6.474187264,0.9997713280746285,-121.91051113704653
6.479286272,0.999777250616269,-122.14960741018503
6.484384768,0.9997963637136825,-122.38887029334381
6.489483776,0.9998275762396143,-122.62851024636662
6.494582784,0.9998691249534477,-122.8686358135429
6.49968128,0.9999184286670719,-123.10940125056926
6.504780288,0.9999726287901568,-123.35089781685936
6.509878784,1.0000286979012194,-123.59316554757139
6.514977792,1.0000832904878136,-123.8362437267806
6.520076288,1.000133121086888,-124.08002057516623
6.525175296,1.0001753981121548,-124.32446213148603
6.530274304,1.0002076400524635,-124.56943754782975
6.5353728,1.00022778318453,-124.81475456109493
6.540471808,1.0002348341492955,-125.06027359280249
6.545570304,1.0002284433118018,-125.30584078612185
6.550669312,1.000208760271283,-125.55121731638818
6.555767808,1.0001770421207716,-125.79619961776824
6.560866816,1.0001351938196805,-126.04069679647196
6.565965824,1.0000854663626026,-126.284587545084
6.57106432,1.0000309959310814,-126.52770486140018
6.576163328,0.9999747661847638,-126.77010464742057
6.581261824,0.9999201781101706,-127.01174550462112
6.586360832,0.999870455352237,-127.25259843884959
6.591459328,0.9998283573026151,-127.49286657774562
6.596558336,0.9997965686707504,-127.73260085226326
6.601657344,0.9997767331082891,-127.9720051814341
6.60675584,0.9997701919018872,-128.2112113058665
6.611854848,0.9997771669262072,-128.45041983990237
6.616953344,0.9997974276420252,-128.68983277257172
6.622052352,0.9998296835547323,-128.92961630730787
6.627150848,0.999872011134038,-129.16991686715673
6.632249856,0.9999220572326565,-129.41088732696232
6.637348864,0.999976864071683,-129.65256290621028
6.64244736,1.000033112720008,-129.8950307272274
6.647546368,1.000087699321165,-130.1382827342918
6.652644864,1.0001373658264496,-130.38227209721862
6.657743872,1.0001790663878833,-130.62691268269722
6.662842368,1.0002105500152874,-130.87204013646894
6.667941376,1.0002299070117133,-131.11755445706603
6.673040384,1.0002359798667733,-131.36322257368613
6.67813888,1.0002284893384603,-131.60891501080948
6.683237888,1.0002076779957925,-131.85440038867347
6.688336384,1.000174928967573,-132.09950860849347
6.693435392,1.0001321348990306,-132.34410348688826
6.698533888,1.0000817252295968,-132.58806279724408
6.703632896,1.0000267466115,-132.8312922546719
6.708731904,0.9999703220731526,-133.07373094680938
6.7138304,0.999915708697505,-133.31542864292666
6.718929408,0.9998661541030928,-133.55639078389734
6.724027904,0.999824753939748,-133.7966943226726
6.729126912,0.9997935372845205,-134.03653534522812
6.734225408,0.9997746509807451,-134.27602829659153
6.739324416,0.9997690485322549,-134.51532118356275
6.744423424,0.9997772157089074,-134.75464307809432
6.74952192,0.9997985260327295,-134.99422254698146
6.754620928,0.9998318202029863,-135.23413911283234
6.759719424,0.9998750557224301,-135.4746090846805
6.764818432,0.9999257216249006,-135.71572548785883
6.769916928,0.9999810538750181,-135.95762993488665
6.775015936,1.0000376241830204,-136.20026227184303
6.780114944,1.0000921763889334,-136.44370799625247
6.78521344,1.0001415159941223,-136.68787944334494
6.790312448,1.0001828059299331,-136.93269870221607
6.795410944,1.0002135927644202,-137.1780053145884
6.800509952,1.000231985190968,-137.42366887382772
6.805608448,1.0002370109962848,-137.66949552699967
6.810707456,1.00022837314608,-137.91531205897726
6.815806464,1.000206534686294,-138.16091397914406
6.82090496,1.0001727671147795,-138.40612237250315
6.826003968,1.0001290796046143,-138.65082427719187
6.831102464,1.0000779661186006,-138.8948445626537
6.836201472,1.0000224520110566,-139.13813386449937
6.841299968,0.999965805826585,-139.38064347628864
6.846398976,0.9999112538298542,-139.62239181425676
6.851497984,0.9998620107374178,-139.86341114789224
6.85659648,0.9998209862467112,-140.10380009659568
6.861695488,0.9997905948210473,-140.34369607089403
6.866793984,0.9997725695985674,-140.58325760103293
6.871892992,0.9997680884231974,-140.8226839039738
6.876991488,0.9997772380877822,-141.0621241789486
6.882090496,0.9997996372932838,-141.3017915144968
6.887189504,0.9998339055648132,-141.54187713682572
6.892288,0.9998780680714999,-141.78250503889933
6.897387008,0.9999295298144926,-142.02377167917837
6.902485504,0.9999852831129084,-142.26582551019135
6.907584512,1.0000421260738324,-142.50869549280895
6.912683008,1.0000966882772933,-142.75230305742798
6.917782016,1.00014576480101,-142.99663247149778
6.922881024,1.0001864538959333,-143.24160769479425
6.92797952,1.0002164672554434,-143.48708918765612
6.933078528,1.0002339931959598,-143.73291078864065
6.938177024,1.0002380409621021,-143.97886855267055
6.943276032,1.0002283364640403,-144.22480857941292
6.948374528,1.0002053196963538,-144.4705161251758
6.953473536,1.0001705951088298,-144.71583005573476
6.958572544,1.0001259561738187,-144.9606097070728
6.96367104,1.0000741484667746,-145.20470229856792
6.968770048,1.0000181188006525,-145.44801593428747
6.973868544,0.9999612551688726,-145.69059811555792
6.978967552,0.9999066903035878,-145.93238772085004
6.984066048,0.9998577982828093,-146.17344559467003
6.989165056,0.9998173457067692,-146.4139079671549
6.994264064,0.9997876234422952,-146.65387255045252
6.99936256,0.9997705198499017,-146.89351656527413
7.004461568,0.9997670663209044,-147.13301425529613
7.009560064,0.999777347987817,-147.3725711841359
7.014659072,0.9998007696317456,-147.61235775997116
7.019757568,0.9998361425137391,-147.85254592686803
7.024856576,0.9998811170078943,-148.0933298577395
7.029955584,0.9999333647150258,-148.3347922921498
7.03505408,0.999989605100029,-148.57699201056928
7.040153088,1.000046645882108,-148.82001737735595
7.045251584,1.0001011774084458,-149.06380764942634
7.050350592,1.000149925387051,-149.30832707558852
7.055449088,1.0001900909478822,-149.5534486874309
7.060548096,1.0002193950608267,-149.79907490749844
7.065647104,1.0002360214176977,-150.04503417457576
7.0707456,1.0002389656937458,-150.2911320110915
7.075844608,1.0002280953519158,-150.53717769298063
7.080943104,1.0002041278567964,-150.78297846855781
7.086042112,1.0001683067585516,-151.02837894091834
7.091140608,1.000122841392426,-151.27320169398018
7.096239616,1.0000703607103618,-151.51734588516922
7.101338624,1.0000138286749396,-151.76074833204905
7.10643712,0.999956694781928,-152.0033466371009
7.111536128,0.9999021372840049,-152.24518312427037
7.116634624,0.9998535353177213,-152.4862910377454
7.121733632,0.9998136297076693,-152.7268022014685
7.126832128,0.9997847622409713,-152.96683487072167
7.131931136,0.9997685362033221,-153.20651707320093
7.137030144,0.9997660872263492,-153.44611735561602
7.14212864,0.9997775133954514,-153.6857628834789
7.147227648,0.9998020546035145,-153.92564683690563
7.152326144,0.9998384301882355,-154.16600017677615
7.157425152,0.9998843170864922,-154.40690336337326
7.162523648,0.9999372043924031,-154.64851268435896
7.167622656,0.9999939274691284,-154.89087939247688
7.172721664,1.0000512304224702,-155.1340305304117
7.17782016,1.0001057081417872,-155.3779997378001
7.182919168,1.000154157359156,-155.62265096208242
7.188017664,1.0001937707401467,-155.8679542934832
7.193116672,1.000222254350942,-156.1137223127473
7.198215168,1.0002378918244474,-156.3598231718425
7.203314176,1.000239870990006,-156.60602746266835
7.208413184,1.0002279362586552,-156.85217026904706
7.21351168,1.0002028045673916,-157.09807094072804
7.218610688,1.0001660126297667,-157.34354313172258
7.223709184,1.000119710577027,-157.5884221518106
7.228808192,1.0000664098999423,-157.8326189332566
7.2339072,1.0000094357511806,-158.07604099558517
7.239005696,0.9999520665141457,-158.31868763904464
7.244104704,0.9998976127826413,-158.56055012128797
7.2492032,0.9998493173797426,-158.8016827428211
7.254302208,0.9998100095398516,-159.04222960095174
7.259400704,0.9997817612045553,-159.2822891318247
7.264499712,0.9997665196186082,-159.52206931481348
7.26959872,0.9997652782884346,-159.76173658194247
7.274697216,0.9997777104933309,-160.00146235265186
7.279796224,0.999803380921297,-160.24146404025882
7.28489472,0.9998406702827222,-160.48191595068832
7.289993728,0.9998875403394594,-160.72295733296474
7.295092224,0.9999410935052652,-160.96471156276058
7.300191232,0.9999982246957073,-161.20721887431932
7.30529024,1.0000557936100827,-161.4505522511392
7.310388736,1.0001101684143026,-161.6946593552751
7.315487744,1.000158329845492,-161.9394583385287
7.32058624,1.0001973993786317,-162.18489678763686
7.325685248,1.0002250940669983,-162.4308145616725
7.330783744,1.0002398070927956,-162.67702393029091
7.335882752,1.0002406363945127,-162.92333618778815
7.34098176,1.0002276173192823,-163.16957547501406
7.346080256,1.0002013832126027,-163.41553607067604
7.351179264,1.0001636212106677,-163.6610481474456
7.35627776,1.0001162990231192,-163.90599718196404
7.361376768,1.0000625022212675,-164.15023391349155
7.366475264,1.000005091612975,-164.39369349779156
7.371574272,0.9999474342611765,-164.63636606163277
7.37667328,0.9998930822339616,-164.87823774563466
7.381771776,0.9998451172013789,-165.11941837049736
7.386870784,0.9998062550357782,-165.3599805282902
7.39196928,0.9997789503537746,-165.60007110861537
7.397068288,0.9997647122400178,-165.83990574741986
7.402166784,0.9997643197266124,-166.0796266255168
7.407265792,0.9997780033041249,-166.31945655873906
7.4123648,0.999804657247124,-166.55955763405018
7.417463296,0.9998430301822065,-166.80011053269078
7.422562304,0.9998907372622898,-167.04125778899729
7.4276608,0.9999449693103064,-167.2831232955806
7.432759808,1.0000026794743657,-167.52579432347721
7.437858304,1.0000602802258356,-167.769269351764
7.442957312,1.0001146951654203,-168.01351126757223
7.44805632,1.0001624590509666,-168.25847284905177
7.453154816,1.0002009122237432,-168.50403370173635
7.458253824,1.0002278900768615,-168.7500630889011
7.46335232,1.0002416209199503,-168.99637647792682
7.468451328,1.0002414362754948,-169.24280727667028
7.473549824,1.0002273037060507,-169.48914569380193
7.478648832,1.0002000131758322,-169.7351504102916
7.48374784,1.0001611621385793,-169.98072516959292
7.488846336,1.000113058689164,-170.22570661875872
7.493945344,1.0000584424748575,-170.46997089576473
7.49904384,1.0000005276639994,-170.71344459097546
7.504142848,0.9999427755222762,-170.95612786215057
7.509241344,0.999888488689583,-171.1980090972447
7.514340352,0.9998408195411314,-171.43919821872916
7.51943936,0.9998026079696305,-171.67979571597462
7.524537856,0.9997760773104802,-171.91991734041088
7.529636864,0.9997628304033137,-172.15977409703612
7.53473536,0.9997635775734834,-172.399572434286
7.539834368,0.9997782917201602,-172.63944587799318
7.544932864,0.9998061211126202,-172.87964913258085
7.550031872,0.9998454293753561,-173.1202760451056
7.55513088,0.9998940715097069,-173.36156844733424
7.560229376,0.9999489459345763,-173.60356039410868
7.565328384,1.0000070923932642,-173.8463473124435
7.57042688,1.0000649411021587,-174.08994993438955
7.575525888,1.0001192496117677,-174.33434589845317
7.580624384,1.0001666508047096,-174.57944301989832
7.585723392,1.0002046186720608,-174.8251330562313
7.5908224,1.0002306983906937,-175.0712809062346
7.595920896,1.0002434371284714,-175.31769338322476
7.601019904,1.0002421874403706,-175.56420236025903
7.6061184,1.000226911550916,-175.81059011056968
7.611217408,1.0001985240414946,-176.05668532669554
7.616315904,1.0001587343439904,-176.3023052093837
7.621414912,1.0001096921412558,-176.54730390169513
7.62651392,1.0000544083122114,-176.79158348308633
7.631612416,0.9999960192262171,-177.03506887079786
7.636711424,0.9999381252472408,-177.27774233522857
7.64180992,0.9998839201855712,-177.51963967997781
7.646908928,0.9998365776175272,-177.76083898447678
7.652007424,0.9997989856497147,-178.00143275833435
7.657106432,0.9997732981926692,-178.2415973591247
7.66220544,0.9997610139842352,-178.4814900679855
7.667303936,0.9997627638440733,-178.7213195656509
7.672402944,0.9997787166347025,-178.96125438745588
7.67750144,0.9998076455199222,-179.20152652243394
7.682600448,0.9998479338085856,-179.4422643368055
7.687698944,0.9998975227309962,-179.68364110293462
7.692797952,0.9999530960143262,-179.92576384691475
7.69789696,1.0000116047360181,179.83133379402233
7.702995456,1.0000696549670511,179.58760198729854
7.708094464,1.0001237856961387,179.3431026683631
7.71319296,1.0001709437890158,179.09786271127726
7.718291968,1.0002081315463547,178.85206504504063
7.723390464,1.0002334641607251,178.60580604224853
7.728489472,1.0002453222637058,178.3593046794426
7.73358848,1.0002428983216125,178.1127014373587
7.738686976,1.0002265163824273,177.8662543125321
7.743785984,1.0001969610828516,177.62013512387432
7.74888448,1.000156127568511,177.37447876837692
7.753983488,1.0001062484833034,177.1294657022513
7.759081984,1.0000502541124427,176.88517736311803
7.764180992,0.9999915990198748,176.6416863310257
7.76928,0.9999334076675545,176.39902285066862
7.774378496,0.999879262418585,176.15712774088186
7.779477504,0.9998323914354466,175.9159560311666
7.784576,0.9997954187481335,175.67534526994547
7.789675008,0.9997705504306371,175.43516983405664
7.794773504,0.9997591954302029,175.19526365443656
7.799872512,0.9997620878052248,174.95538849967548
7.80497152,0.9997790511362366,174.71539558065135
7.810070016,0.9998091185206159,174.47506312924327
7.815169024,0.9998505631124861,174.234229366344
7.82026752,0.9999008231849884,173.99275516968214
7.825366528,0.9999571772383967,173.750541922327
7.830465024,1.0000161535003251,173.5075189268879
7.835564032,1.0000743279524043,173.26365780341123
7.84066304,1.0001284116482458,173.01903643123072
7.845761536,1.000175075794492,172.77370986280215
7.850860544,1.000211698712474,172.52778125661848
7.85595904,1.0002361968680895,172.28144075973458
7.861058048,1.000247026883909,172.0348531259934
7.866156544,1.0002435972325865,171.78818979410806
7.871255552,1.0002261359762479,171.54167992691728
7.87635456,1.0001954456822184,171.29551453497416
7.881453056,1.000153539148508,171.0498407564933
7.886552064,1.0001027857761315,170.80481498640216
7.89165056,1.0000462194164785,170.56053793363927
7.896749568,0.9999869984105441,170.31706121054293
7.901848064,0.999928659032648,170.07440975778357
7.906947072,0.9998746734809565,169.83253338549966
7.91204608,0.9998282203303728,169.59136818897818
7.917144576,0.9997918583821326,169.35077089388307
7.922243584,0.9997677513280097,169.11060458492273
7.92734208,0.999757419274265,168.87066841487987
7.932441088,0.9997613954689303,168.63078405775494
7.937539584,0.9997795989491175,168.39072227586738
7.942638592,0.9998107009773776,168.15033045724095
7.9477376,0.9998530941021608,167.9094437677829
7.952836096,0.9999043916669812,167.6678732340876
7.957935104,0.9999613024579107,167.42553341206673
7.9630336,1.000020780726509,167.18241905260075
7.968132608,1.0000790571362006,166.93847454384104
7.973231104,1.0001329818856621,166.69373202165576
7.978330112,1.000179364388306,166.44830077050403
7.98342912,1.0002153594806817,166.2022701501428
7.988527616,1.0002390592163224,165.95584336002003
7.993626624,1.0002488039030948,165.70917943978944
7.99872512,1.0002442617185314,165.46245793295242
8.003824128,1.0002255236335316,165.21591468816212
8.008923136,1.0001937155690375,164.96972049531945
8.014021632,1.0001508748818047,164.7240393949401
8.01912064,1.000099313576502,164.47902143552562
8.024219136,1.000042014223622,164.23474902573156
