freq,mag,phase
6.0,1.000011306959044,-41.6675126605457
6.00614912,0.9997817077179975,-41.919001418403006
6.01229824,0.9995641388998365,-42.167547123684535
6.01844736,0.9993710828416191,-42.41325047119689
6.02459648,0.9992134363569104,-42.656643623835926
6.0307456,0.9991002620464643,-42.898210521545025
6.03689472,0.9990382842922447,-43.13864947178201
6.04304384,0.9990307548025268,-43.37868294560298
6.04919296,0.9990784082314982,-43.61901449896467
6.05534208,0.9991784008463401,-43.8604560451407
6.0614912,0.9993250886268877,-44.10370533675228
6.06764032,0.9995100877436951,-44.34927204817496
6.07378944,0.999722985371467,-44.59766765370865
6.07993856,0.9999513534535418,-44.84918594738479
6.08608768,1.0001826492876682,-45.1039373711162
6.0922368,1.000403090219573,-45.361847790799246
6.09838592,1.0006004956032573,-45.62270479921908
6.10453504,1.0007635532617807,-45.88615673553985
6.11068416,1.0008828218104235,-46.15161894651679
6.11683328,1.0009516178087963,-46.41841001545481
6.1229824,1.0009659732129288,-46.68591678843325
6.12913152,1.0009249114220908,-46.95323495891266
6.13528064,1.0008309649209803,-47.21973293015688
6.14142976,1.0006891082019602,-47.4847162454355
6.14757888,1.0005076140172848,-47.74751571265849
6.153728,1.000296699213947,-48.0076923765946
6.15987712,1.0000685560810085,-48.26492648765582
6.16602624,0.9998360655425226,-48.51906592134307
6.17217536,0.9996124181324598,-48.770139580753145
6.17832448,0.9994104215006363,-49.018319481479494
6.1844736,0.9992416087892382,-49.26400577031238
6.19062272,0.9991157005439296,-49.50774429892784
6.19677184,0.9990398319888544,-49.75012627054578
6.20292096,0.9990184983423157,-49.99193973726524
6.20907008,0.9990532186725297,-50.23389077065029
6.2152192,0.9991413726520094,-50.47673931209357
6.22136832,0.9992783985907904,-50.72126469608143
6.22751744,0.99945649183551,-50.968013301455784
6.23366656,0.999665333923258,-51.21746289965277
6.23981568,0.9998932618054409,-51.47004986287556
6.2459648,1.000127112407835,-51.725834232796615
6.25211392,1.0003534821902682,-51.98488180603317
6.25826304,1.0005596173555213,-52.24701512165159
6.26441216,1.000733581517988,-52.51178206869442
6.27056128,1.000865714203386,-52.77877659763968
6.2767104,1.000948342133533,-53.047289684272144
6.28285952,1.0009765630704528,-53.31664763744397
6.28900864,1.0009489789549653,-53.58609432366029
6.29515776,1.0008670305340566,-53.85485257703481
6.30130688,1.0007351648000373,-54.12222815547656
6.307456,1.000561073070723,-54.3875715405692
6.31360512,1.0003546932128204,-54.6503616110706
6.31975424,1.0001275382031858,-54.91024427248267
6.32590336,0.9998927193252761,-55.167028708252374
6.33205248,0.9996633146244406,-55.420676677772875
6.3382016,0.9994528807696875,-55.67137446797411
6.34435072,0.9992731884567827,-55.91943341131437
6.35049984,0.9991345475786801,-56.165373165746345
6.35664896,0.9990449046032663,-56.40977981485531
6.36279808,0.9990093600598892,-56.65337155910612
6.3689472,0.9990302251760517,-56.896957490331275
6.37509632,0.9991061169326375,-57.14125945088026
6.38124544,0.9992326843425374,-57.3870577077163
6.38739456,0.999402867488169,-57.63495607927215
6.39354368,0.9996071200017027,-57.88553280137123
6.3996928,0.9998335692779188,-58.139108398334294
6.405841408,1.0000692473096588,-58.39596443819179
6.411990528,1.0003008943805023,-58.65607813170738
6.418139648,1.0005153903383268,-58.91938178433836
6.424288768,1.0007002406319865,-59.185454575168286
6.430437888,1.0008449058607056,-59.453889276184036
6.436587008,1.0009414715081983,-59.72407505782903
6.442736128,1.000984051437901,-59.9952441653072
6.448885248,1.0009704340243768,-60.26670959464013
6.455034368,1.0009011405766641,-60.537736054858314
6.461183488,1.0007801874591524,-60.80744151487212
6.467332608,1.0006143755127659,-61.07534635889007
6.473481728,1.0004130924298034,-61.340710334064454
6.479630848,1.000187829660753,-61.60328730589951
6.485779968,0.9999515610070839,-61.8626799640275
6.491929088,0.9997172552460554,-62.11895346732641
6.498078208,0.9994988318003979,-62.372190838104274
6.504227328,0.9993084153518272,-62.62263364502599
6.510376448,0.9991570850533726,-62.87079521375122
6.516525568,0.999053440525202,-63.11722030642377
6.522674688,0.9990035401538584,-63.36274051671616
6.528823808,0.9990101936974464,-63.60796377150898
6.534972928,0.9990727773859438,-63.853739847994504
6.541122048,0.9991883364676981,-64.10082572014299
6.547271168,0.9993498697165847,-64.34987602480693
6.553420288,0.9995483857758843,-64.60148230952454
6.559569408,0.9997723890315705,-64.8560831438911
6.565718528,1.0000092160627716,-65.11390121987006
6.571867648,1.0002455582021743,-65.3750910183633
6.578016768,1.0004677052308457,-65.63944934866453
6.584165888,1.0006630525249283,-65.90682362918498
6.590315008,1.000820369460792,-66.17664709292602
6.596464128,1.0009309892013651,-66.44840701645582
6.602613248,1.0009881931131812,-66.72137112394495
6.608762368,1.000989010131538,-66.99481796144812
6.614911488,1.0009330733145483,-67.26796683073763
6.621060608,1.000823770188071,-67.54006978166399
6.627209728,1.0006670852114914,-67.81039882973447
6.633358848,1.000471928282534,-68.07837070293274
6.639507968,1.0002494804954392,-68.34355396648665
6.645657088,1.0000123759819546,-68.60566459510336
6.651806208,0.9997740779882217,-68.86455282524754
6.657955328,0.9995481774342303,-69.12029750220319
6.664104448,0.9993475716208915,-69.37319050573255
6.670253568,0.9991835846384325,-69.6236119766799
6.676402688,0.9990659031192417,-69.8721671142775
6.682551808,0.999001010038024,-70.11951789590651
6.688700928,0.9989929346670698,-70.36640192609553
6.694850048,0.9990418996807475,-70.61371611045926
6.700999168,0.9991454410234583,-70.86206450498894
6.707148288,0.9992972272189649,-71.11228957748862
6.713297408,0.9994892324112158,-71.36492009108314
6.719446528,0.9997100883256852,-71.62048099349005
6.725595648,0.9999473621664852,-71.87925308446066
6.731744768,1.0001874648491933,-72.14139709449488
6.737893888,1.000416754616134,-72.40681558524453
6.744043008,1.0006223155237886,-72.67534660689851
6.750192128,1.0007921287567831,-72.94650439067387
6.756341248,1.0009165730883853,-73.21975821019815
6.762490368,1.0009887760626555,-73.49443229015102
6.768639488,1.0010046647384712,-73.7697641948131
6.774788608,1.0009627690987273,-74.04501860474667
6.780937728,1.000865663157605,-74.3193679397358
6.787086848,1.0007190702813902,-74.59215407379733
6.793235968,1.0005311555993162,-74.8626699741811
6.799385088,1.0003124643011285,-75.13051208271534
6.805534208,1.000075393087301,-75.39524812011027
6.811683328,0.9998335301644351,-75.65676828980163
6.817832448,0.9996008491869132,-75.91506392121067
6.823981568,0.9993902922351259,-76.17039606056981
6.830130688,0.9992140525917468,-76.42311003265812
6.836279808,0.999082142464013,-76.67378374801507
6.842428928,0.9990023239043104,-76.92302772345074
6.848578048,0.9989791344207452,-77.17165908938574
6.854727168,0.9990136135331483,-77.42040320839301
6.860876288,0.9991042295736108,-77.67007777429042
6.867025408,0.9992458643910644,-77.92142025722427
6.873174528,0.9994302213250748,-78.17507305434921
6.879323648,0.999646854929047,-78.43156255747665
6.885472768,0.999883570314599,-78.69119318057096
6.891621888,1.0001267923555879,-78.9542553816309
6.897771008,1.000362631029455,-79.22068776278942
6.903920128,1.000577752893857,-79.4902888495331
6.910069248,1.000759811414499,-79.76267606678051
6.916218368,1.0008984956190021,-80.03733084130491
6.922367488,1.000985831512583,-80.31359518879454
6.928516608,1.0010168413888536,-80.59077290862271
6.934665728,1.0009896033735164,-80.86807478857202
6.940814848,1.0009059046618525,-81.14462431587354
6.946963968,1.0007701465159229,-81.4197619473054
6.953113088,1.0005901136762008,-81.69282336897784
6.959262208,1.0003760208874464,-81.96322934945894
6.965411328,1.0001401972624069,-82.2306070809616
6.971560448,0.9998957184429235,-82.49474218236162
6.977709568,0.9996567941785937,-82.7556243993205
6.983858688,0.9994369201430544,-83.01342413803086
6.990007808,0.9992485196682241,-83.26844118926995
6.996156928,0.9991026554726429,-83.52118693135307
7.002306048,0.999007532301151,-83.77236492628052
7.008455168,0.9989687185023396,-84.02269418558885
7.014604288,0.998988243874769,-84.27295134162941
7.020753408,0.9990653202395101,-84.52391511925636
7.026902528,0.9991954789395311,-84.7763487423498
7.033051648,0.9993711865986371,-85.03099071759371
7.039200768,0.9995829616638873,-85.28836041743668
7.045349888,0.9998180058534442,-85.5488716821677
7.051499008,1.000063502980859,-85.81275099325043
7.057648128,1.0003052296143768,-86.08003859306281
7.063797248,1.0005294069572714,-86.35062893714115
7.069946368,1.0007234332724582,-86.62413562809174
7.076095488,1.000876084132013,-86.9001169607849
7.082244608,1.0009786831335301,-87.17792725392626
7.088393728,1.0010254234103093,-87.45679418028939
7.094542848,1.0010135934539974,-87.73600581136283
7.100691968,1.0009437745531826,-88.01471489607573
7.106841088,1.000819723401286,-88.29216181456046
7.112990208,1.0006490644487165,-88.56767586405383
7.119139328,1.000440485402015,-88.84062603491553
7.125288448,1.0002065751482834,-89.11059094245866
7.131437568,0.9999603416076175,-89.37734579156586
7.137586688,0.9997159027929319,-89.64078049590374
7.143735808,0.9994871627127203,-89.90102718390827
7.149884928,0.9992871897716906,-90.15835086951022
7.156034048,0.9991273318027832,-90.41327574212274
7.162183168,0.9990168537926176,-90.66636604595456
7.168332288,0.9989618053048089,-90.91839228183385
7.174481408,0.9989659270433953,-91.17015083763432
7.180630528,0.9990286444612815,-91.42235514235364
7.186779648,0.9991465969821194,-91.67589347512042
7.192928768,0.9993129539214728,-91.93146281963683
7.199077888,0.9995183262307599,-92.18970473618506
7.205226496,0.9997510889434028,-92.45094552341571
7.211375616,0.9999978128371318,-92.71558110131372
7.217524736,1.0002446250139643,-92.98370586274093
7.223673856,1.0004773914384668,-93.2551815826147
7.229822976,1.0006829121615584,-93.52973165218327
7.235972096,1.0008494007911826,-93.80689337293475
7.242121216,1.0009675427023772,-94.08607067152337
7.248270336,1.0010303140718622,-94.36662205006498
7.254419456,1.001034248400681,-94.64762986536185
7.260568576,1.000979165043268,-94.9283916603774
7.266717696,1.0008679715121351,-95.20804594710428
7.272866816,1.0007068366802105,-95.48592415650903
7.279015936,1.000505323445231,-95.7613683265399
7.285165056,1.0002745223300156,-96.03391089042077
7.291314176,1.0000273978789205,-96.30325218681332
7.297463296,0.9997783130341541,-96.5691931770528
7.303612416,0.9995413634727751,-96.83187767444718
7.309761536,0.9993300028545565,-97.09150060252733
7.315910656,0.9991562841106112,-97.34855030435895
7.322059776,0.9990302733281695,-97.60358733671484
7.328208896,0.9989592284461816,-97.85731990013664
7.334358016,0.9989471728281909,-98.11053449560875
7.340507136,0.9989947929888833,-98.36402489440795
7.346656256,0.9990994513969018,-98.61864524969683
7.352805376,0.9992553296689345,-98.87513565858956
7.358954496,0.9994535377621243,-99.13409361459047
7.365103616,0.9996826299871558,-99.3960913409173
7.371252736,0.9999298786134397,-99.66137759860337
7.377401856,1.0001809319889217,-99.93020645597008
7.383550976,1.0004215966029504,-100.2024426898343
7.389700096,1.0006382124105182,-100.477879691777
7.395849216,1.000818362950766,-100.75615297554955
7.401998336,1.0009519710527466,-101.03660067952991
7.408147456,1.0010310776942517,-101.31861811241886
7.414296576,1.001051371212002,-101.60136329726488
7.420445696,1.0010116867259238,-101.88405856063902
7.426594816,1.0009140771765948,-102.16583564903718
7.432743936,1.0007641341203553,-102.44598193667218
7.438893056,1.0005701686962445,-102.72387999468727
7.445042176,1.0003435051749063,-102.99888289436434
7.451191296,1.0000966028257827,-103.2707623651279
7.457340416,0.9998437248434636,-103.53922592041074
7.463489536,0.9995991711359281,-103.80433774094178
7.469638656,0.9993770088105803,-104.06625508938718
7.475787776,0.9991898396573404,-104.32544093907178
7.481936896,0.9990483361352399,-104.58238822906108
7.488086016,0.9989607585474379,-104.83782280783021
7.494235136,0.9989320121119526,-105.09248708446066
7.500384256,0.998963798227523,-105.34726501860297
7.506533376,0.9990545365305622,-105.60289163839963
7.512682496,0.999198933704538,-105.8602065067868
7.518831616,0.9993887912026298,-106.11989119873029
7.524980736,0.9996132664198571,-106.3824749071743
7.531129856,0.9998598166531545,-106.64838704744703
7.537278976,1.000114298310869,-106.9177862909533
7.543428096,1.0003620648818339,-107.19068333237168
7.549577216,1.0005892851758065,-107.46695498729122
7.555726336,1.0007828306252045,-107.74614403871345
7.561875456,1.0009316566597253,-108.02773899818531
7.568024576,1.001027585191103,-108.31109475756672
7.574173696,1.0010647695471384,-108.59544466581364
7.580322816,1.001041135982213,-108.87990530216385
7.586471936,1.0009579516525482,-109.16371997990178
7.592621056,1.0008199880621997,-109.44608649334066
7.598770176,1.0006349295392707,-109.72627211901867
7.604919296,1.0004133125442574,-110.00374372433343
7.611068416,1.000167711510349,-110.27806284118233
7.617217536,0.9999119969742376,-110.54900576705774
7.623366656,0.9996607418246097,-110.81649695276903
7.629515776,0.9994283248929937,-111.08070317212953
7.635664896,0.9992279350522811,-111.34195817065797
7.641814016,0.999071057645296,-111.60084782822933
7.647963136,0.9989667050957522,-111.85796017240266
7.654112256,0.9989208935976251,-112.11409638804591
7.660261376,0.9989362102825818,-112.37005008997775
7.666410496,0.9990120050657472,-112.62668269605742
7.672559616,0.9991438384304757,-112.88481326140233
7.678708736,0.9993243145900639,-113.14512803902487
7.684857856,0.999543142492388,-113.40825049526543
7.691006976,0.999787928899483,-113.67463903813263
7.697156096,1.0000447202867329,-113.94453383209712
7.703305216,1.0002990165002543,-114.21796685406017
7.709454336,1.0005361329060098,-114.49485299887932
7.715603456,1.00074261278137,-114.77484704874377
7.721752576,1.0009068951922713,-115.05746288182088
7.727901696,1.0010194993429777,-115.34203779149807
7.734050816,1.001073840941066,-115.62779748183905
7.740199936,1.0010669671450976,-115.91396801760708
7.746349056,1.0009992207307834,-116.19963868513521
7.752498176,1.0008741971759991,-116.48412582812581
7.758647296,1.0006991366803086,-116.76650822004441
7.764796416,1.0004838433947028,-117.04636667553044
7.770945536,1.0002404756184669,-117.3230708869462
7.777094656,0.99998290261687,-117.5964074253032
7.783243776,0.9997258226774519,-117.8662509422367
7.789392896,0.9994837553339122,-118.13271199273723
7.795542016,0.9992704687773712,-118.39608114977389
7.801691136,0.9990984440940451,-118.65681660295091
7.807840256,0.9989771728665409,-118.9156101275678
7.813989376,0.9989139190339139,-119.17314454113436
7.820138496,0.9989121578159228,-119.43028618506038
7.826287616,0.9989720869733103,-119.68787838372458
7.832436736,0.9990904550020829,-119.94672904491186
7.838585856,0.9992604401027548,-120.20762443615953
7.844734976,0.9994724006983775,-120.47120513345541
7.850884096,0.9997143847579572,-120.73795072693147
7.857033216,0.9999725332459198,-121.00820120786521
7.863182336,1.000232221480196,-121.28206260027494
7.869331456,1.0004786750567851,-121.55945589254212
7.875480576,1.0006978244654905,-121.84010083568101
7.881629696,1.0008772136853614,-122.1235683202906
7.887778816,1.001006634956888,-122.40916389861574
7.893927936,1.0010787036611273,-122.69623956170129
7.900077056,1.0010891650511455,-122.98390186573873
7.906226176,1.0010374962825583,-123.2713677170829
7.912375296,1.0009264988658715,-123.5577339673173
7.918524416,1.0007624785760736,-123.84231637613173
7.924673536,1.0005545844779946,-124.12439743390686
7.930822656,1.0003147791534404,-124.40342559202135
7.936971776,1.0000564164672285,-124.67907919990934
7.943120896,0.9997942678322796,-124.95123481225068
7.949270016,0.9995433181139765,-125.2198550683323
7.955419136,0.9993178653473922,-125.48526665801344
7.961568256,0.9991306196213842,-125.74788535892439
7.967717376,0.9989926194053318,-126.00830804580698
7.973866496,0.9989114784386834,-126.26724772779117
7.980015616,0.9988919923531911,-126.52551835234584
7.986164736,0.9989354028313678,-126.78402448157705
7.992313856,0.9990392074906259,-127.04354404128279
7.998462976,0.9991975793198498,-127.30493165472039
8.004611584,0.9994015860395995,-127.56887308848444
8.010760704,0.9996395709685755,-127.83590000111958
8.016909824,0.9998980249175452,-128.10639555753306
8.023058944,1.000162195141244,-128.38051934413883
8.029208064,1.0004171558380948,-128.65826592123145
8.035357184,1.0006483011495426,-128.9394353318741
8.041506304,1.0008426141202966,-129.22351272962666
8.047655424,1.0009889089840516,-129.5100420906447
8.053804544,1.001078910778967,-129.7981955103172
8.059953664,1.001107339469354,-130.0872471624903
8.066102784,1.0010726020942649,-130.37628582988518
8.072251904,1.0009765914027509,-130.66452048258364
8.078401024,1.0008246917028578,-130.95107359144427
8.084550144,1.000625474642985,-131.2352839853356
8.090699264,1.0003902504059117,-131.51654294164948
8.096848384,1.0001321820452418,-131.79449285155806
8.102997504,0.999866102453259,-132.06883796520503
8.109146624,0.9996070414185412,-132.33963840776858
8.115295744,0.9993698356591723,-132.6070700942595
8.121444864,0.999167917560684,-132.87148341906874
8.127593984,0.9990129616050156,-133.13348472372235
8.133743104,0.9989138016573054,-133.3937726589625
8.139892224,0.9988760775714808,-133.65316318321172
8.146041344,0.9989021420730843,-133.91250150023603
8.152190464,0.9989904871469054,-134.17264617257933
8.158339584,0.9991361791132495,-134.43443535647955
8.164488704,0.9993309411294816,-134.69865721978806
8.170637824,0.9995636878826477,-134.9658296410196
8.176786944,0.9998211937329377,-135.23641680338343
8.182936064,1.0000888946075985,-135.51069204847664
8.189085184,1.0003515462762151,-135.78864819951886
8.195234304,1.0005941865762786,-136.0700876611724
8.201383424,1.0008029746790628,-136.35472050739844
8.207532544,1.0009660373600076,-136.64192538373882
8.213681664,1.0010741831716516,-136.9310736796597
8.219830784,1.0011210112398612,-137.22126688192404
8.225979904,1.0011040517134533,-137.5117732175943
8.232129024,1.0010239330973263,-137.8016566606106
8.238278144,1.0008853308267318,-138.09006806045335
8.244427264,1.000695914528147,-138.3762834032047
8.250576384,1.0004664941532204,-138.65966251354297
8.256725504,1.0002099411979837,-138.93976503267572
8.262874624,0.9999409943940527,-139.2162884767962
8.269023744,0.9996747565281004,-139.48915557435555
8.275172864,0.9994264578206694,-139.7585161250666
8.281321984,0.9992102026672957,-140.0247228917658
8.287471104,0.9990384791535999,-140.2882931273744
8.293620224,0.9989210682084136,-140.54987872652814
8.299769344,0.9988646315494166,-140.81031881224857
8.305918464,0.9988726328262344,-141.07044768880212
8.312067584,0.9989445810358819,-141.3311472821987
8.318216704,0.9990764369324621,-141.5932909548677
8.324365824,0.9992607928871868,-141.85765166768448
8.330514944,0.99948712946671,-142.12488479056495
8.336664064,0.999742572314494,-142.39547292856864
8.342813184,1.0000127009927335,-142.6696863419427
8.348962304,1.0002821124322514,-142.94767817611887
8.355111424,1.0005354967991242,-143.22927487030455
8.361260544,1.000758390708297,-143.51420605090263
8.367409664,1.0009381357111247,-143.80195579925675
8.373558784,1.001064515381033,-144.09184644986058
8.379707904,1.0011302359836796,-144.38306641570009
8.385857024,1.0011315907385558,-144.67482481151865
8.392006144,1.0010683244244636,-144.96620247617
8.398155264,1.000944096256036,-145.25632464686717
8.404304384,1.0007657075861884,-145.54442680263358
8.410453504,1.0005433458525543,-145.82979101810454
8.416602624,1.0002895907733875,-146.11195652434301
8.422751744,1.0000187188980014,-146.39054615779335
8.428900864,0.9997462361099474,-146.66543317799858
8.435049984,0.9994876251186432,-146.9366975972074
8.441199104,0.999257492938546,-147.2046288068784
8.447348224,0.9990691873445,-147.46970622977386
8.453497344,0.9989333928225178,-147.73254388498313
