freq,mag,phase
6.0,1.0000448887824023,-93.57306624999912
6.00379136,1.0000679796242775,-93.76977613724472
6.00758272,1.0000859037168348,-93.96678265189678
6.011374592,1.0000983812899982,-94.16406322248042
6.015165952,1.0001046174315107,-94.36148238768855
6.018957312,1.0001044367642953,-94.5589875768133
6.022748672,1.0000976885546817,-94.75647008251276
6.026540032,1.0000848269054217,-94.9538828827724
6.030331904,1.0000668063463833,-95.15104779787238
6.034123264,1.0000443580844054,-95.34800549534565
6.037914624,1.0000190608257258,-95.54465456886538
6.041705984,0.9999924860190393,-95.74093643306776
6.045497856,0.9999662772571553,-95.93690489149724
6.049289216,0.9999417657792965,-96.13253500501841
6.053080576,0.999920701153448,-96.32786508288204
6.056871936,0.9999042786895834,-96.52295035250944
6.060663296,0.9998935181946206,-96.71789924613408
6.064455168,0.9998889875305265,-96.91273540875387
6.068246528,0.9998910813375067,-97.10762056334842
6.072037888,0.9998996016838972,-97.30259506487769
6.075829248,0.9999140309242724,-97.4977914725621
6.079620608,0.9999335830764977,-97.69321539407805
6.08341248,0.9999570322553227,-97.88898905192775
6.08720384,0.9999828125581272,-98.08513514695106
6.0909952,1.0000096416396609,-98.28171585696974
6.09478656,1.0000356198927955,-98.47871346620346
6.098578432,1.0000592547824678,-98.67606242365353
6.102369792,1.0000792402626044,-98.87377262499527
6.106161152,1.0000942095707595,-99.07174581337334
6.109952512,1.000103236517134,-99.26994192622307
6.113743872,1.0001060020031585,-99.46824306796236
6.117535744,1.0001019729124154,-99.66655074662978
6.121327104,1.000091694718051,-99.86479144162212
6.125118464,1.0000755861227972,-100.06291484262174
6.128909824,1.00005476324008,-100.2607883181276
6.132701184,1.000030529645192,-100.4583654259566
6.136493056,1.0000042220968774,-100.65559383928273
6.140284416,0.9999774899162751,-100.85251741492763
6.144075776,0.9999519139613734,-101.0490664761662
6.147867136,0.9999290878771132,-101.24530119337399
6.151659008,0.9999104503585358,-101.4412841738969
6.155450368,0.9998969941196081,-101.63708406804236
6.159241728,0.9998897262176938,-101.83271816560996
6.163033088,0.9998888986542079,-102.02839207873417
6.166824448,0.9998946822181702,-102.22411537784363
6.17061632,0.9999067024053255,-102.41994550682848
6.17440768,0.999924262458316,-102.61605738227217
6.17819904,0.9999463374851971,-102.81245615200267
6.1819904,0.9999713418640482,-103.00928140950326
6.18578176,0.999997995839489,-103.20644144567221
6.189573632,1.0000247333883967,-103.40401771996017
6.193364992,1.0000497173955956,-103.60202406928711
6.197156352,1.0000715868649483,-103.80038565112685
6.200947712,1.0000889334618006,-103.99905028049825
6.204739584,1.000100706887593,-104.19793953926322
6.208530944,1.000106218746681,-104.39699230696847
6.212322304,1.0001051919251804,-104.59610638661036
6.216113664,1.0000975696667198,-104.79517963318193
6.219905024,1.0000838003225245,-104.99414423222679
6.223696896,1.0000648854284468,-105.19290897798551
6.227488256,1.00004186082966,-105.39143231049714
6.231279616,1.0000160135837395,-105.5895985027973
6.235070976,0.9999891375759311,-105.78739922316514
6.238862336,0.9999626568949763,-105.98489999828874
6.242654208,0.9999384296963625,-106.18206401148028
6.246445568,0.999917639096029,-106.37889265696255
6.250236928,0.9999017876840022,-106.57555555015068
6.254028288,0.9998916752962431,-106.77203240576802
6.25782016,0.9998879387474183,-106.96842469911212
6.26161152,0.9998909555288437,-107.16488489052885
6.26540288,0.9999004266608986,-107.36141151098067
6.26919424,0.9999157106588376,-107.55815641171453
6.2729856,0.9999360299803441,-107.75519621073762
6.276777472,0.9999600344286036,-107.95259219218245
6.280568832,0.9999864595095258,-108.15035327306592
6.284360192,1.0000134762777386,-108.34854333660917
6.288151552,1.0000394755751423,-108.54713375616542
6.291942912,1.0000629980997298,-108.74605991399172
6.295734784,1.0000825018968837,-108.94537343804909
6.299526144,1.0000969142546536,-109.14497353880685
6.303317504,1.0001052767403884,-109.34475210244014
6.307108864,1.0001071668397037,-109.5446211718517
6.310900224,1.0001023098076376,-109.74446970342849
6.314692096,1.0000910538529395,-109.94428960062828
6.318483456,1.0000742254509236,-110.14390961181252
6.322274816,1.0000526800441305,-110.34329651826025
6.326066176,1.0000278018282769,-110.54237203692385
6.329858048,1.0000010914460549,-110.74111588496656
6.333649408,0.9999741319258693,-110.93951012163555
6.337440768,0.9999485087843756,-111.13755550599055
6.341232128,0.9999259000003764,-111.33530261637456
6.345023488,0.9999077237907047,-111.53274258107915
6.34881536,0.9998948503054906,-111.73003596345501
6.35260672,0.9998883261146341,-111.92717929425912
6.35639808,0.9998883300106708,-112.12435438819988
6.36018944,0.9998950359076537,-112.32157421720625
6.3639808,0.9999079731409739,-112.51897608167945
6.367772672,0.9999263719329637,-112.71661675596803
6.371564032,0.9999490498097393,-112.91460103770348
6.375355392,0.999974715270975,-113.11294697691244
6.379146752,1.0000017648579704,-113.31168334042754
6.382938624,1.0000285927550412,-113.510821805668
6.386729984,1.000053456377299,-113.71038260150866
6.390521344,1.0000751098487888,-113.91029084104487
6.394312704,1.0000919088553215,-114.11049925932797
6.398104064,1.0001030734428884,-114.31094863888995
6.401895936,1.0001078764864797,-114.51151485340506
6.405687296,1.0001058580879398,-114.7121605046003
6.409478656,1.0000973476976482,-114.91274448122667
6.413270016,1.0000827964332755,-115.11319285581459
6.417061376,1.0000630747010677,-115.31343645910272
6.420853248,1.000039337419572,-115.51337822820733
6.424644608,1.0000131132813788,-115.71303046148289
6.428435968,0.9999859027358612,-115.91229116246646
6.432227328,0.9999594156554654,-116.11119314970918
6.4360192,0.9999352202802925,-116.30980447487008
6.43981056,0.9999147832898393,-116.50807889073269
6.44360192,0.9998993434106315,-116.70619506023827
6.44739328,0.9998899590579371,-116.90410160772528
6.45118464,0.9998870981368244,-117.10195894915869
6.454976512,0.9998909445879001,-117.29985403083661
6.458767872,0.9999012647383311,-117.49787711075803
6.462559232,0.9999173945075335,-117.69612066461332
6.466350592,0.9999385252093054,-117.89465957806306
6.470141952,0.9999631407823909,-118.09355673721059
6.473933824,0.9999899245245403,-118.29284536275084
6.477725184,1.0000171355497607,-118.49254987802487
6.481516544,1.0000433182087558,-118.69263286712126
6.485307904,1.0000665814451495,-118.89313400213996
6.489099776,1.0000857509926906,-119.09392150430058
6.492891136,1.0000995847824765,-119.29501451416658
6.496682496,1.0001072637415702,-119.49627447322025
6.500473856,1.000108244002549,-119.69762219579418
6.504265216,1.0001026101681083,-119.89893395747103
6.508057088,1.0000904778374968,-120.10018061661732
6.511848448,1.0000727902636062,-120.30124563453286
6.515639808,1.0000505916760998,-120.50203108627163
6.519431168,1.000025039610947,-120.70250498447719
6.523222528,0.9999979881772236,-120.90266195402381
6.5270144,0.9999707655550509,-121.1024254819712
6.53080576,0.9999451779141405,-121.30187652685292
6.53459712,0.9999229298097897,-121.50097867114462
6.53838848,0.9999050606699526,-121.69982171909211
6.54217984,0.9998928646918842,-121.8985225356075
6.545971712,0.9998870490343111,-122.09710214816698
6.549763072,0.9998879288314577,-122.29566005774635
6.553554432,0.999895450383909,-122.4942855603689
6.557345792,0.9999092195928273,-122.69311783792303
6.561137664,0.999928402883645,-122.89220410401674
6.564929024,0.9999517919274741,-123.09162705598933
6.568720384,0.9999779587157734,-123.29140584869165
6.572511744,1.0000053770775703,-123.4916261282704
6.576303104,1.000032326987382,-123.69222701931591
6.580094976,1.000057161732506,-123.89323618475214
6.583886336,1.0000784676848682,-124.09464087501226
6.587677696,1.0000948991657312,-124.29627793292019
6.591469056,1.0001053735220988,-124.49814327077782
6.595260416,1.0001093154716578,-124.70016782838542
6.599052288,1.0001066130644285,-124.90219719851771
6.602843648,1.0000972556599539,-125.10417162032758
6.606635008,1.0000817218621092,-125.30604852645449
6.610426368,1.0000613257847388,-125.50764127569533
6.61421824,1.0000369283510682,-125.70893450321215
6.6180096,1.0000101969705315,-125.9099122164013
6.62180096,0.9999826933042295,-126.11053170187843
6.62559232,0.9999560458323791,-126.31078384382818
6.62938368,0.9999319957864035,-126.51069580601515
6.633175552,0.9999118949228215,-126.71034860508222
6.636966912,0.9998970305089627,-126.90975317469274
6.640758272,0.9998883289113206,-127.1089994199515
6.644549632,0.9998862080683556,-127.30822113190665
6.648340992,0.9998908294030597,-127.50747406436393
6.652132864,0.9999020575143324,-127.70685781988017
6.655924224,0.9999190290908632,-127.90650567350337
6.659715584,0.9999408989747942,-128.10641768650723
6.663506944,0.9999660571490894,-128.30669887859167
6.667298816,0.9999933594424434,-128.50740495656325
6.671090176,1.0000208549040204,-128.70849019881888
6.674881536,1.000046912917726,-128.90998293828315
6.678672896,1.0000700888525067,-129.11186050190722
6.682464256,1.0000889487660911,-129.31404327769587
6.686256128,1.000102156016904,-129.51650929282164
6.690047488,1.0001090953799008,-129.7191542462479
6.693838848,1.0001093529737637,-129.92183674369522
6.697630208,1.0001028283011901,-130.1245507367436
6.701421568,1.0000898931303868,-130.32710593863996
6.70521344,1.0000714242511284,-130.5294643968535
6.7090048,1.0000485280994094,-130.7315981395596
6.71279616,1.0000224140598966,-130.93335526253605
6.71658752,0.9999948561225983,-131.13478849146364
6.720379392,0.9999675625704145,-131.33583023410307
6.724170752,0.9999420823686597,-131.53654648560024
6.727962112,0.9999198938198789,-131.73691944818657
6.731753472,0.9999025176706487,-131.93706086324931
6.735544832,0.9998908832662767,-132.1370165966725
6.739336704,0.9998857795829004,-132.33686278717911
6.743128064,0.9998875679654347,-132.5367076759189
6.746919424,0.9998959121763201,-132.73666964966645
6.750710784,0.9999105355378952,-132.93681908433396
6.754502144,0.9999304014761883,-133.13725895297702
6.758294016,0.9999544636027351,-133.3379963570809
6.762085376,0.9999811808375699,-133.53911341063693
6.765876736,1.0000089630888687,-133.74065473829003
6.769668096,1.000035959048686,-133.94259593721097
6.773459968,1.0000608034094267,-134.14496768498668
6.777251328,1.0000817864740115,-134.34766392210227
6.781042688,1.0000976686976115,-134.5506478601326
6.784834048,1.00010758169582,-134.75386694481483
6.788625408,1.0001108134604209,-134.95717278614302
6.79241728,1.0001072913611604,-135.16046578510586
6.79620864,1.0000970559128832,-135.3637550194175
6.8,1.0000807876607396,-135.56684150160083
6.80379136,1.0000595783062007,-135.76969436724636
6.80758272,1.0000345855975235,-135.97224795838903
6.811374592,1.0000073358821708,-136.17445210440937
6.815165952,0.9999795295337086,-136.37629859135424
6.818957312,0.9999528484128204,-136.57774400650737
6.822748672,0.9999289275224261,-136.77891033300534
6.826540032,0.9999091990961783,-136.9797422773986
6.830331904,0.9998948199529347,-137.180360379686
6.834123264,0.9998867222442899,-137.38082441393325
6.837914624,0.9998853910325681,-137.58130338113716
6.841705984,0.9998909007778611,-137.7817809570533
6.845497856,0.9999028821529945,-137.98240652078505
6.849289216,0.9999206520216556,-138.18331633810143
6.853080576,0.9999431938777341,-138.38449604807832
6.856871936,0.9999690493159994,-138.58603290313766
6.860663296,0.9999966808843654,-138.78800119467888
6.864455168,1.0000243741632349,-138.99038526438508
6.868246528,1.0000505545489256,-139.1931509024433
6.872037888,1.0000735484965526,-139.39629225258622
6.875829248,1.0000919445819056,-139.5997818369235
6.879620608,1.000104655731483,-139.80350211652737
6.88341248,1.000110960037385,-140.00737328196988
6.88720384,1.0001103670611555,-140.21131482494357
6.8909952,1.0001030414404941,-140.41519447673525
6.89478656,1.0000892793335374,-140.61897595950276
6.898578432,1.0000699936746853,-140.82254626936128
6.902369792,1.0000463644533748,-141.0258141328054
6.906161152,1.000019760350682,-141.22875397797046
6.909952512,0.9999919343973874,-141.4313438549541
6.913743872,0.9999643904875913,-141.6335449663975
6.917535744,0.9999389439786411,-141.83540992102024
6.921327104,0.9999169862497836,-142.03690532818365
6.925118464,0.9999000075024852,-142.23821741420957
6.928909824,0.9998889799399503,-142.4393210771768
6.932701184,0.9998845713167733,-142.64035354556756
6.936493056,0.9998870602645564,-142.84138169984084
6.940284416,0.9998963248037182,-143.04247556860273
6.944075776,0.9999117284096634,-143.24383170248885
6.947867136,0.9999324240972487,-143.44543205835845
6.951659008,0.9999571122943758,-143.64736334869443
6.955450368,0.9999842782235426,-143.84972033669345
6.959241728,1.000012379160855,-144.0524576631268
6.963033088,1.000039606261809,-144.25562171410857
6.966824448,1.0000642524337906,-144.4591885175668
6.97061632,1.000085087263618,-144.66309653224786
6.97440768,1.000100552522536,-144.8672810250537
6.97819904,1.0001097956688112,-145.07164915669668
6.9819904,1.0001122907489433,-145.27615180666714
6.98578176,1.0001078738440574,-145.48063074530836
6.989573632,1.0000968324666306,-145.68503806555347
6.993364992,1.0000797964178911,-145.88926515369891
6.997156352,1.0000579119617337,-146.0932238210759
7.000947712,1.0000322530199484,-146.29688458689347
7.004739584,1.0000046116136436,-146.50019135374995
7.008530944,0.9999764695140276,-146.70309991181793
7.012322304,0.9999497949574915,-146.9056649303641
7.016113664,0.9999259246172552,-147.10787081866675
7.019905024,0.9999065290661769,-147.30977823259505
7.023696896,0.9998926170765686,-147.51149464991775
7.027488256,0.9998851658888309,-147.7130680543617
7.031279616,0.999884600901814,-147.9146100314577
7.035070976,0.9998908499918815,-148.11620906855134
7.038862336,0.9999037767475324,-148.31797472942384
7.042654208,0.9999223487984987,-148.51997227037785
7.046445568,0.9999455811935064,-148.7222648614818
7.050236928,0.9999719622917113,-148.9249415963958
7.054028288,0.9999999911286697,-149.1280406724276
7.05782016,1.0000280000136008,-149.33157170754328
7.06161152,1.0000541424891012,-149.53549601502064
7.06540288,1.0000768886130722,-149.7397715403384
7.06919424,1.0000950346321191,-149.94439235665078
7.0729856,1.0001071650571234,-150.1492167312874
7.076777472,1.00011280694075,-150.35418514821635
7.080568832,1.000111529205177,-150.55921879166948
7.084360192,1.0001032693653715,-150.76422038124755
7.088151552,1.0000887356349246,-150.96904574160052
7.091942912,1.0000687295342419,-151.1736711399915
7.095734784,1.000044374537246,-151.37799490442265
7.099526144,1.0000173036125999,-151.5819581923656
7.103317504,0.999989034796421,-151.78554035578853
7.107108864,0.9999613202953254,-151.98878093672957
7.110900224,0.9999358622054292,-152.1916293439625
7.114692096,0.9999141269851688,-152.39419069577212
7.118483456,0.9998976089337187,-152.59645739191402
7.122274816,0.9998871123772964,-152.7986019487129
7.126066176,0.999883440975227,-153.00062053755963
7.129858048,0.9998866646234962,-153.20269791090297
7.133649408,0.9998967407746776,-153.4048385062226
7.137440768,0.9999129844021193,-153.607221033194
7.141232128,0.9999344455214068,-153.8098828048412
7.145023488,0.9999597618578072,-154.01288811945884
7.14881536,0.9999874375463572,-154.21628875647806
7.15260672,1.0000158345714367,-154.42010885593902
7.15639808,1.0000432179043377,-154.62434654409364
7.16018944,1.000067848624349,-154.82896168472655
7.1639808,1.0000882730943146,-155.03391971782497
7.167772672,1.0001032784774804,-155.23915630777353
7.171564032,1.000111980862543,-155.4446059333207
7.175355392,1.0001137802897446,-155.6501160569952
7.179146752,1.0001085303268213,-155.85560530656895
7.182938624,1.0000967294136096,-156.0610243180416
7.186729984,1.0000789104460075,-156.26622379212273
7.190521344,1.0000561946992048,-156.47116830009028
7.194312704,1.0000299739238048,-156.67576702039824
7.198104064,1.00000186191231,-156.88003421543345
7.201895936,0.9999735787283356,-157.08390743145654
7.205687296,0.9999467123804209,-157.28738293017116
7.209478656,0.9999229803578095,-157.4905179026742
7.213270016,0.9999039234463978,-157.6933857860738
7.217061376,0.9998904940899683,-157.896035418488
7.220853248,0.9998836892420482,-158.0985468868119
7.224644608,0.9998838523007398,-158.30105026830617
7.228435968,0.9998909741143085,-158.50358223363978
7.232227328,0.999904678127007,-158.70631950150195
7.2360192,0.999923988250382,-158.90927843259055
7.23981056,0.9999479342530041,-159.11260050394037
7.24360192,0.9999749221234792,-159.31624761542184
7.24739328,1.0000032969750035,-159.5203568666353
7.25118464,1.000031522314136,-159.72486643682774
7.254976512,1.0000577395820862,-159.9297639178858
7.258767872,1.0000804234958227,-160.13504542286933
7.262559232,1.0000980959136099,-160.34062956737392
7.266350592,1.0001097175575044,-160.54644371708793
7.270141952,1.0001146449010534,-160.7523792098979
7.273933824,1.0001125892423706,-160.95834815293736
7.277725184,1.0001036161108592,-161.1642630560487
7.281516544,1.0000882310297332,-161.3700218881439
7.285307904,1.0000674693485687,-161.5755454011515
7.289099776,1.0000424691831002,-161.7807647847335
7.292891136,1.0000148334025811,-161.9856246398784
7.296682496,0.9999861547384151,-162.19008981749465
7.300473856,0.9999583236131542,-162.39418136273318
7.304265216,0.9999328662526413,-162.59788348427946
7.308057088,0.9999113849470757,-162.8012913733362
7.311848448,0.9998952634497661,-163.004462514916
7.315639808,0.9998854153852236,-163.20742703973625
7.319431168,0.9998823669895817,-163.41035013551829
7.323222528,0.9998864652211624,-163.61327001098257
7.3270144,0.9998973071489512,-163.8163133121219
7.33080576,0.9999142514743357,-164.01959901509304
7.33459712,0.9999364616105947,-164.22316665931186
7.33838848,0.9999624089934214,-164.4270736205111
7.34217984,0.9999905783467884,-164.6314174655843
7.345971712,1.0000192104173216,-164.8361318463032
7.349763072,1.000046754886612,-165.04130203459076
7.353554432,1.0000712813925383,-165.2468337388767
7.357345792,1.0000914639698413,-165.45268597876012
7.361137664,1.0001060618530384,-165.65883881210223
7.364929024,1.0001141799172364,-165.86513756780613
7.368720384,1.000115215572011,-166.07152190275255
7.372511744,1.0001092045104443,-166.27789368616678
7.376303104,1.0000965592244677,-166.48416118239
7.380094976,1.0000779110475426,-166.69021805237645
7.383886336,1.0000545403026209,-166.89597169682975
7.387677696,1.0000277576136831,-167.1014219820766
7.391469056,0.9999991537786501,-167.30644964139722
7.395260416,0.9999705984646842,-167.51109102154635
7.399052288,0.9999436302735388,-167.71537404505492
7.402843648,0.9999200818129023,-167.91929743874994
7.406635008,0.9999013098721117,-168.12293819064453
7.410426368,0.9998884378351123,-168.32635784146328
7.41421824,0.9998822070807047,-168.5296777295096
7.4180096,0.9998831987264272,-168.7329685164824
7.42180096,0.9998909613915881,-168.93632341691023
7.42559232,0.9999054372230647,-169.13987050137214
7.42938368,0.999925594301856,-169.3436748978687
7.433175552,0.9999501296399805,-169.54779779773736
7.436966912,0.9999777237162969,-169.75229245050582
7.440758272,1.000006564696937,-169.95722020026312
7.444549632,1.0000349323827105,-170.16257879439314
7.448340992,1.0000612945793044,-170.36832423046965
7.452132864,1.000083628130951,-170.57443347612087
7.455924224,1.0001010020358958,-170.7808599584344
7.459715584,1.0001121249730291,-170.98746572307672
7.463506944,1.0001163733348426,-171.19421086839742
7.467298816,1.0001136669717694,-171.40098312662604
7.471090176,1.0001037679422082,-171.60767353779246
7.474881536,1.0000877140554711,-171.81420564542248
7.478672896,1.0000661761393894,-172.02047174872467
7.482464256,1.0000404870783766,-172.226427554325
7.486256128,1.0000123618576457,-172.43201341071818
7.490047488,0.9999832959440599,-172.63720544889637
7.493838848,0.9999552644272431,-172.8420035471591
7.497630208,0.999929829500742,-173.0464305769035
7.501421568,0.9999086590616961,-173.25051781407788
