freq,mag,phase
6.0,0.999966741588026,-121.01415865629174
6.041451008,0.9999595232381348,-123.20832811197776
6.082901504,0.999953570545598,-125.40189333441774
6.124352512,0.9999479990131088,-127.59476751992204
6.165803008,0.9999429396958841,-129.78687899252319
6.207254016,0.9999384184643381,-131.97821349720917
6.248704512,0.999934584960012,-134.168664513173
6.29015552,0.9999313058829775,-136.3581965725025
6.331606016,0.999928817952707,-138.54671699279044
6.373057024,0.999926910543725,-140.73416996482922
6.41450752,0.9999257949978414,-142.92050744320835
6.455958528,0.9999254045659399,-145.10566681712928
6.497409536,0.9999258323128802,-147.2895700816575
6.538860032,0.9999269534008808,-149.47218880936677
6.58031104,0.9999287780960511,-151.65344923923914
6.621761536,0.9999314195728206,-153.83330534048355
6.663212544,0.9999346333303453,-156.01171961029777
6.70466304,0.9999386286243666,-158.1885783024338
6.746114048,0.9999432501127823,-160.3638640953247
6.787564544,0.9999484423954166,-162.53753780343547
6.829015552,0.9999541740715088,-164.70957318147862
6.87046656,0.9999603860932604,-166.87990109544512
6.911917056,0.9999670708096599,-169.04837789446424
6.953368064,0.9999740451089576,-171.21508817767753
6.99481856,0.999981411146001,-173.37992477784297
7.036269568,0.9999889618790233,-175.5428684285659
7.077720064,0.9999966847392482,-177.70386523352445
7.119171072,1.0000044150650675,-179.86284072443772
7.160621568,1.0000122662068018,177.98019058674748
7.202072576,1.0000199208212377,175.82531539706176
7.243523072,1.0000274723248104,173.67255602676823
7.28497408,1.0000348191140223,171.52194175130813
7.326425088,1.0000418427708904,169.37352838079357
7.367875584,1.0000484796442772,167.22733459121895
7.409326592,1.0000546879911902,165.08340969926982
7.450777088,1.0000603614894588,162.94176824700284
7.492228096,1.0000654965506295,160.80248107716443
7.533678592,1.0000700001129317,158.66553355859838
7.5751296,1.0000738771292081,156.53098109918113
7.616580096,1.0000769438316488,154.39884403367913
7.658031104,1.0000794316423125,152.26916163558408
7.699482112,1.0000810291960962,150.14194742313344
7.740932608,1.0000818831591562,148.01722831339882
7.782383616,1.0000818567697274,145.89502832564776
7.823834112,1.0000810364842583,143.77534992553342
7.86528512,1.0000794674612634,141.658250018465
7.906735616,1.0000771526569014,139.54374336850742
7.948186624,1.0000739344015708,137.4317835684091
7.98963712,1.0000701487244943,135.32246359803173
8.031088128,1.0000655334788537,133.21575938233707
8.072538624,1.0000601721400677,131.11167400981347
8.113989632,1.0000543439459957,129.0102395429906
8.15544064,1.0000478990532704,126.91145257901246
8.196891136,1.0000410209036996,124.81531987380703
8.238342144,1.000033670427542,122.72183663882777
8.27979264,1.0000259463944778,120.63101753560646
8.321243648,1.000018007127897,118.54284834246566
8.362694144,1.0000098184927482,116.4573409799219
8.404145152,1.0000015103861772,114.37450531345807
8.445595648,0.9999931120472727,112.29428763969698
8.487046656,0.9999849053909168,110.21673278779113
8.528497664,0.9999768269707076,108.14179379867893
8.56994816,0.9999688090201235,106.06948695828497
8.611398656,0.9999612150939141,103.99978272987342
8.652850176,0.9999539673309443,101.93266502403569
8.694300672,0.9999471188695495,99.86812559826856
8.735751168,0.9999409071336575,97.8061449273833
8.777201664,0.9999353328274436,95.74670154202774
8.818653184,0.9999302962809252,93.68976514516969
8.86010368,0.9999260735538541,91.6353295737159
8.901554176,0.9999225447489832,89.58337017040361
8.943004672,0.9999198176845535,87.53383073924873
8.984456192,0.9999179760600283,85.48671872839897
9.025906688,0.999916979332559,83.44200676922557
9.067357184,0.9999168372480342,81.39963858162561
9.108808704,0.9999175993096214,79.35960425209787
9.1502592,0.9999192880743867,77.32184916070115
9.191709696,0.9999216996895289,75.28638073520665
9.233160192,0.9999251431761059,73.25311760315275
9.274611712,0.9999292733608857,71.22206856961944
9.316062208,0.9999342533250835,69.19318076484404
9.357512704,0.9999399072232825,67.16639353399854
9.398964224,0.9999462491171758,65.14170702578059
9.44041472,0.9999532222000362,63.11907481955236
9.481865216,0.9999607113402141,61.098456637312594
9.523315712,0.9999687291368583,59.07981503055081
9.564767232,0.9999771147754084,57.06310199871761
9.606217728,0.9999858613512589,55.048296296846516
9.647668224,0.999994751305436,53.0353500143801
9.68911872,1.0000037707906233,51.024226280549314
9.73057024,1.0000128964717223,49.014889992108834
9.772020736,1.000021881363284,47.00729869133115
9.813471232,1.000030666090219,45.001400562243255
9.854922752,1.0000391740807173,42.9971842965204
9.896373248,1.0000474250540148,40.99459740097455
9.937823744,1.0000553077543795,38.99358443283456
9.97927424,1.0000625513045565,36.99412428345542
10.02072576,1.0000693208662546,34.99618632575768
10.062176256,1.0000753096882187,32.999723624778646
10.103626752,1.000080719203754,31.00467906546233
10.145077248,1.0000850549676619,29.011034093103962
10.186528768,1.0000887324031635,27.018748195312426
10.227979264,1.0000914878658913,25.027769738666745
10.26942976,1.0000932524900144,23.038082075522965
10.31088128,1.00009419329145,21.0496056973809
10.352331776,1.0000941139304795,19.062343847677752
10.393782272,1.0000929984052422,17.07623642711084
10.435232768,1.0000908846344285,15.091228214980799
10.476684288,1.0000878636020538,13.107288981800911
10.518134784,1.0000839768233103,11.124406967062866
10.55958528,1.0000791923042416,9.142492910016095
10.601035776,1.0000734815215013,7.161528003830512
10.642487296,1.000067084840999,5.181487199090292
10.683937792,1.000059823889579,3.20229185635603
10.725388288,1.000051966234698,1.223917204589535
10.766839808,1.0000435466030249,-0.7536912198436061
10.808290304,1.00003465724294,-2.730564882761716
10.8497408,1.0000252751567877,-4.706760821316454
10.891191296,1.0000156134759057,-6.6823169562013645
10.932642816,1.0000058232594287,-8.657293068764425
10.974093312,0.9999958870646699,-10.63173384657323
11.015543808,0.9999859248201648,-12.605663814407691
11.056995328,0.9999761276444576,-14.579150458669853
11.098445824,0.9999664981159121,-16.552273690722892
11.13989632,0.9999572465999483,-18.52505761151445
11.181346816,0.9999483616822515,-20.49752434359117
11.222798336,0.9999400805830947,-22.469768417755272
11.264248832,0.9999322804593898,-24.44182300108138
11.305699328,0.9999252785682632,-26.413759882083465
11.347149824,0.9999190434296432,-28.38562317605127
11.388601344,0.9999136487954883,-30.357442681869546
11.43005184,0.9999090956900879,-32.32930818717306
11.471502336,0.9999055669621433,-34.30124678954576
11.512953856,0.9999030518806012,-36.2733438324754
11.554404352,0.9999015432766153,-38.245628082465345
11.595854848,0.9999011044984424,-40.21816581327381
11.637305344,0.9999017972810263,-42.19102083655918
11.678756864,0.9999035505287261,-44.164225909927865
11.72020736,0.9999063322942201,-46.1378301705615
11.761657856,0.9999102729220021,-48.11193722817369
11.803108352,0.9999150937771335,-50.0865594916893
11.844559872,0.9999208567673443,-52.06176212743988
11.886010368,0.9999276495095247,-54.03758292004322
11.927460864,0.9999352586516429,-56.0140992149149
11.968912384,0.9999436494375994,-57.991369113167885
12.01036288,0.9999526468284317,-59.96941178372696
12.051813376,0.9999623921935344,-61.94830403834413
12.093263872,0.9999725436648284,-63.92807723307962
12.134715392,0.9999830318460895,-65.90879761533073
12.176165888,0.999993856788522,-67.8905027132714
12.217616384,1.000004881307702,-69.87324557411219
12.25906688,1.0000160448183422,-71.85707372212097
12.3005184,1.0000270883141842,-73.84202575534816
12.341968896,1.0000379532773043,-75.82812953078388
12.383419392,1.0000484820575826,-77.81546464452191
12.424870912,1.000058648435036,-79.80403677256854
12.466321408,1.0000682969537127,-81.793927224926
12.507771904,1.0000774172128948,-83.78513445781952
12.5492224,1.000085695488488,-85.77771236832369
12.59067392,1.0000931914351525,-87.77170481296612
12.632124416,1.0000998116186997,-89.76714962159024
12.673574912,1.0001054524348587,-91.76406888023976
12.715025408,1.0001100153563907,-93.7624832191485
12.756476928,1.0001136055722621,-95.76246564399999
12.797927424,1.0001159366313241,-97.7640288160912
12.83937792,1.0001171449025759,-99.76720187134553
12.88082944,1.0001172187994336,-101.772025758175
12.922279936,1.0001160118954526,-103.77850696825595
12.963730432,1.0001135946058193,-105.78669983445833
13.005180928,1.0001100190324237,-107.79662552177432
13.046632448,1.000105251864644,-109.80828804066
13.088082944,1.0000993660044786,-111.82174647461181
13.12953344,1.000092434803363,-113.83700997205324
13.17098496,1.0000845262942404,-115.85414112644968
13.212435456,1.0000756034835978,-117.87310206940303
13.253885952,1.0000658882690965,-119.8939593495901
13.295336448,1.0000554808222097,-121.91673084215853
13.336787968,1.0000442661080238,-123.94145213993109
13.378238464,1.0000326140204394,-125.96812931947426
13.41968896,1.0000205205866974,-127.99678221963266
13.461139456,1.0000080345729598,-130.02746171140345
13.502590976,0.9999954514491476,-132.06016195595245
13.544041472,0.9999828346260251,-134.09492646064257
13.585491968,0.9999702529109978,-136.1317721112301
13.626943488,0.9999578398755754,-138.17072240529828
13.668393984,0.9999458247952302,-140.2117964270736
13.70984448,0.9999341968953844,-142.25502185591193
13.751294976,0.9999232212574326,-144.30041749095355
13.792746496,0.9999128765126468,-146.34800093544845
13.834196992,0.9999033647538328,-148.3977912763832
13.875647488,0.999894806207864,-150.44982592073515
13.917097984,0.9998873155727648,-152.50411720773707
13.958549504,0.9998808825976192,-154.56066817101214
14.0,0.9998755585432785,-156.61950828219474
