freq,mag,phase
6.0,0.9999863506784697,-157.25973652469764
6.018867712,0.999993736082532,-158.35232677721146
6.037735936,1.000001710349412,-159.44460909898203
6.056603648,1.0000099727013763,-160.536652445927
6.075471872,1.0000182843510341,-161.62839004626042
6.094339584,1.000026325576314,-162.71985683343826
6.113207296,1.0000337366694236,-163.81103082360823
6.13207552,1.0000402481396196,-164.90185100632272
6.150943232,1.0000458511118475,-165.99238810438143
6.169811456,1.0000499343897797,-167.082577956881
6.188679168,1.0000528360297372,-168.17240594805045
6.207547392,1.0000540542965513,-169.26187937406453
6.226415104,1.0000536886644567,-170.35092594881849
6.245282816,1.000051728798614,-171.43956421839349
6.26415104,1.0000481148401974,-172.52773335707636
6.283018752,1.0000432292957515,-173.61546579545416
6.301886976,1.0000369021782782,-174.70274364998363
6.320754688,1.0000296352498537,-175.78946272801286
6.3396224,1.0000215308763187,-176.87571313063214
6.358490624,1.0000128365874086,-177.9614255797368
6.377358336,1.000003796861896,-179.04659263936807
6.39622656,0.9999949347158233,179.86875065215236
6.415094272,0.9999865335433906,178.78467132821623
6.433962496,0.9999786945016885,177.70110366945175
6.452830208,0.9999718705637338,176.61806588959362
6.47169792,0.9999662672688822,175.5355617740725
6.490566144,0.9999620375809793,174.45355065716848
6.509433856,0.9999594204524727,173.37206368269116
6.52830208,0.9999584087974215,172.29106596497877
6.547169792,0.9999592452465692,171.2105138377619
6.566037504,0.9999615941937116,170.13043448118913
6.584905728,0.9999656916820927,169.050781934779
6.60377344,0.9999713953788706,167.97156404327865
6.622641664,0.9999783066839444,166.8927738674964
6.641509376,0.9999862520294809,165.81435458162125
6.6603776,0.9999950952597255,164.73634797719131
6.679245312,1.000004440181806,163.65872674330072
6.698113024,1.00001401161473,162.5814814359809
6.716981248,1.0000234407856807,161.5046419257556
6.73584896,1.0000323138409035,160.42816691342676
6.754717184,1.0000403941964269,159.35212146526044
6.773584896,1.0000473760361321,158.27648508550928
6.792452608,1.0000529904477595,157.20126211097704
6.811320832,1.0000571758053403,156.1264798523029
6.830188544,1.0000595781623975,155.0521737804438
6.849056768,1.0000601292028173,153.9783324102468
6.86792448,1.0000589393091015,152.90503954853492
6.886792704,1.0000558784547806,151.83225026218489
6.905660416,1.0000510958710587,150.75996830718057
6.924528128,1.000044710000644,149.68829720590242
6.943396352,1.0000370049666256,148.6171966587893
6.962264064,1.0000282097964086,147.5466778786754
6.981132288,1.000018729126966,146.47678235883538
7.0,1.0000086061224716,145.40749726399574
7.018867712,0.9999984764190064,144.3388313424965
7.037735936,0.9999885535722263,143.27076775342113
7.056603648,0.9999792610911465,142.20333563375198
7.075471872,0.9999709038677916,141.13652052595288
7.094339584,0.9999637401322106,140.07029068279166
7.113207296,0.9999580759634653,139.00464990710145
7.13207552,0.9999541129219419,137.9395776204941
7.150943232,0.999951956809147,136.8750454379095
7.169811456,0.9999517670164192,135.8110528335241
7.188679168,0.9999535495956741,134.74755010432582
7.207547392,0.9999571974110006,133.6845391169971
7.226415104,0.9999626685525255,132.62200313821478
7.245282816,0.9999697092946127,131.55991836149497
7.26415104,0.9999781379543405,130.49823954370382
7.283018752,0.9999876992494298,129.4370061981363
7.301886976,0.9999979247491609,128.37615488357775
7.320754688,1.0000086087346403,127.3156938248803
7.3396224,1.0000193193143392,126.25565200421639
7.358490624,1.0000296861518945,125.19598570524833
7.377358336,1.0000392724147313,124.13672888865871
7.39622656,1.0000479467546122,123.07789264823512
7.415094272,1.0000552426786782,122.0194631172637
7.433962496,1.0000607873489913,120.96147016115091
7.452830208,1.0000645294120902,119.90391501333174
7.47169792,1.0000662126952797,118.8468331408094
7.490566144,1.0000659207627636,117.79025587182403
7.509433856,1.0000635741449821,116.73416976871377
7.52830208,1.0000592237937511,115.6786368989802
7.547169792,1.0000530201304412,114.62364291300389
7.566037504,1.00004509674566,113.56922877183918
7.584905728,1.000035889729364,112.51537751653012
7.60377344,1.0000256651889023,111.46213900873009
7.622641664,1.0000145909650655,110.40949957402793
7.641509376,1.000003287538403,109.3574651213544
7.6603776,0.9999919873124136,108.3060537597739
7.679245312,0.999981133214633,107.25523466557974
7.698113024,0.9999711778630307,106.20500876003811
7.716981248,0.999962507866879,105.15535078645715
7.73584896,0.9999551170087121,104.10627870857157
7.754717184,0.9999497022637135,103.05774591455413
7.773584896,0.9999462869208853,102.0097225252286
7.792452608,0.9999448561359099,100.96220710816979
7.811320832,0.9999457119853855,99.91515918659343
7.830188544,0.9999488132591833,98.86856798680259
7.849056768,0.9999537977305648,97.82237852607993
7.86792448,0.9999607753986057,96.77660679130219
7.886792704,0.9999694719764225,95.73119188435075
7.905660416,0.9999794288512207,94.68613137818262
7.924528128,0.9999905676136781,93.64142733538216
7.943396352,1.000002286811767,92.59701358399575
7.962264064,1.0000142011385893,91.55295097333216
7.981132288,1.0000260193594552,90.5091866712083
8.0,1.0000372157208042,89.46574700631041
8.018867712,1.0000474379041022,88.4226171223792
8.037735936,1.0000563497336514,87.37979474165044
8.056603648,1.0000636010377526,86.33735202576645
8.075471872,1.0000688597730045,85.29524706062257
8.094339584,1.000072003910888,84.25352230243702
8.113207296,1.0000728891077568,83.21217917987097
8.13207552,1.00007146462038,82.1712573094562
8.150943232,1.0000677440926158,81.13077919668385
8.169811456,1.000061908148099,80.09074595863338
8.188679168,1.00005408472353,79.05119559079526
8.207547392,1.0000446136077996,78.01211593708584
8.226415104,1.0000337464424032,76.97358562583236
8.245282816,1.0000219044577519,75.93552763874696
8.26415104,1.000009364637701,74.89801328759366
8.283018752,0.9999967829703617,73.86101332493897
8.301886976,0.9999844182624994,72.82451601529718
8.320754688,0.9999728155519401,71.78854382278628
8.3396224,0.9999623637116287,70.75305309388187
8.358490624,0.9999533412738295,69.71804142606459
8.377358336,0.9999461850040784,68.68347012839226
8.39622656,0.999941156763048,67.64935564682884
8.415094272,0.9999383680482516,66.61563363135346
8.433962496,0.9999380203509258,65.58226818875774
8.452830208,0.9999400433121517,64.5492586834257
8.47169792,0.9999444380236011,63.516546616172434
8.490566144,0.9999511509057816,62.48412133641802
8.509433856,0.9999597978068017,61.45195504636763
8.52830208,0.999970150085314,60.4200102088871
8.547169792,0.9999818755881923,59.388266822261535
8.566037504,0.9999945728919332,58.35674210187521
8.584905728,1.0000078045016516,57.325361672769745
8.603773952,1.000021023616013,56.294168941442244
8.622641152,1.0000339106204723,55.263137274228264
8.641509376,1.000045946637231,54.23228409537511
8.6603776,1.0000565803858608,53.20159469881916
8.6792448,1.0000656597321633,52.17109982770234
8.698113024,1.000072739604018,51.140796567372035
8.716981248,1.0000774765876153,50.110703507902386
8.735849472,1.0000798189795368,49.08087253636164
8.754716672,1.0000795976028802,48.05128034114563
8.773584896,1.00007690442412,47.02197742578733
8.79245312,1.0000716513587373,45.992990741040984
8.81132032,1.0000641137424215,44.96430375774757
8.830188544,1.0000545804614562,43.93597646772142
8.849056768,1.0000432685270888,42.908027127094066
8.867924992,1.0000306069209033,41.88042565004585
8.886792192,1.0000170704898923,40.85321979653637
8.905660416,1.0000030970040368,39.82637795284694
8.92452864,0.9999892469273942,38.799927931226236
8.94339584,0.9999757812769069,37.77383831610757
8.962264064,0.9999634684382265,36.74810605085829
8.981132288,0.9999525482957219,35.72273260610937
8.999999488,0.9999434256987415,34.69767707987186
9.018867712,0.9999365058469492,33.67289885578255
9.037735936,0.9999320292327374,32.64841235133102
9.05660416,0.9999301896908338,31.624122539783908
9.07547136,0.9999310252890949,30.600052691938235
9.094339584,0.9999345046635039,29.576128336644683
9.113207808,0.999940662791802,28.552325433648253
9.132075008,0.9999490861055322,27.528637344707935
9.150943232,0.9999595803088559,26.504999272399683
9.169811456,0.9999718297912527,25.48142041314903
9.18867968,0.9999854194174427,24.457852016560146
9.20754688,0.999999805554155,23.4342830438587
9.226415104,1.000014594652146,22.410714796749666
9.245283328,1.0000291743166143,21.38711086023546
9.264150528,1.0000432047857983,20.36349252900436
9.283018752,1.0000558447941146,19.339859752554855
9.301886976,1.0000669984452477,18.316225078781883
9.3207552,1.000076081763552,17.292601596818397
9.3396224,1.0000828086187286,16.269008776152976
9.358490624,1.0000869460088146,15.245451220977994
9.377358848,1.0000882588288211,14.221957238897625
9.396226048,1.0000867178472006,13.198579143347256
9.415094272,1.0000824163529989,12.175301598790433
9.433962496,1.000075437603652,11.152185358192389
9.452829696,1.0000660397635897,10.12923142943888
9.47169792,1.0000544198760621,9.106458838696316
9.490566144,1.000041125323672,8.08388705546039
9.509434368,1.0000265092844196,7.061536227266531
9.528301568,1.000011154910021,6.039395893058917
9.547169792,0.9999955317729198,5.0174827506855335
9.566038016,0.9999802387340779,3.9957782329437457
9.584905216,0.9999656398015734,2.9742921615540854
9.60377344,0.9999525466114407,1.952976008526404
9.622641664,0.9999413257013262,0.9318275740705066
9.641509888,0.9999321294919046,-0.08918130539616484
9.660377088,0.999925698885893,-1.1100637417740487
9.679245312,0.9999218962022159,-2.1308877226270297
9.698113536,0.9999211197459427,-3.151669632986779
9.716980736,0.9999234964954986,-4.172458348703618
9.73584896,0.9999286977586244,-5.193300754380458
9.754717184,0.9999366085757868,-6.214187441603347
9.773585408,0.9999471445513703,-7.235198937892029
9.792452608,0.999959845773764,-8.256337551132306
9.811320832,0.9999742115628025,-9.277647224478628
9.830189056,0.9999899463409697,-10.299137527314162
9.849056256,1.0000062893859034,-11.32086766510246
9.86792448,1.0000227757356785,-12.342792467684138
9.886792704,1.000038892798802,-13.36492494886579
9.905659904,1.0000539935833237,-14.387283310650561
9.924528128,1.0000674754762866,-15.409863163168191
9.943396352,1.0000790098332029,-16.432616739807195
9.962264576,1.0000880059362287,-17.4555600404204
9.981131776,1.0000943203858417,-18.478673946534023
10.0,1.0000975171780264,-19.501903985004205
10.018868224,1.0000976485509743,-20.525231248808335
10.037735424,1.0000945131099528,-21.54864719054676
10.056603648,1.0000884018624583,-22.572104075595405
10.075471872,1.000079328963559,-23.595556126815605
10.094340096,1.000067631617848,-24.619035177141274
10.113207296,1.0000536865147787,-25.64247420348796
10.13207552,1.0000381077603724,-26.665853760897967
10.150943744,1.0000212473234535,-27.68919646857925
10.169810944,1.0000038164351333,-28.712476783812036
10.188679168,0.9999863897569091,-29.735693920749558
10.207547392,0.9999694475220499,-30.758852426047174
10.226414592,0.9999538637920145,-31.781993788508352
10.245282816,0.9999398722518712,-32.80507823664864
10.26415104,0.999928274090115,-33.82819394346158
10.283019264,0.9999192830393601,-34.85137062196674
10.301886464,0.9999133395086311,-35.87459594800857
10.320754688,0.999910557840219,-36.89794217998385
10.339622912,0.9999112237718022,-37.9214388001934
10.358490112,0.9999152129423976,-38.94514396217115
10.377358336,0.9999225822030046,-39.96906688786145
10.39622656,0.9999327353456131,-40.99326813322709
10.415094784,0.999945668137202,-42.017788917516505
10.433961984,0.9999608461727381,-43.0426364112541
10.452830208,0.9999778055508615,-44.0678595861473
10.471698432,0.9999958348428578,-45.093483582966094
10.490565632,1.0000144337057004,-46.11948635640682
10.509433856,1.0000328129274512,-47.14592418646697
10.52830208,1.0000505203726997,-48.17275719302195
10.547170304,1.0000668124065042,-49.20000472874567
10.566037504,1.0000811024981482,-50.227652580183154
10.584905728,1.0000927754161133,-51.25565054015717
10.603773952,1.0001016980125748,-52.28401537059564
10.622641152,1.0001073126773508,-53.31269978704328
10.641509376,1.0001094618233897,-54.34167890224376
10.6603776,1.0001079555977321,-55.37089629984186
10.6792448,1.0001028710460913,-56.4003511281043
10.698113024,1.0000944536341374,-57.4299923900296
10.716981248,1.0000828719763553,-58.45979227570989
10.735849472,1.0000685994443712,-59.489726186219734
10.754716672,1.0000519296431205,-60.519751174191455
10.773584896,1.0000336367726883,-61.54986298985255
10.79245312,1.000014268469728,-62.5800743354594
10.81132032,0.9999943579140615,-63.61034865509239
10.830188544,0.9999749247768952,-64.64068196802644
10.849056768,0.9999564129129768,-65.67110871554868
10.867924992,0.9999395542409655,-66.70164994257665
10.886792192,0.9999248384869592,-67.73232015024186
10.905660416,0.9999129590055043,-68.76312761861263
10.92452864,0.9999042291819694,-69.79414306233903
10.94339584,0.9998991036925711,-70.82539051994037
10.962264064,0.9998976883861823,-71.85691981609465
10.981132288,0.9999000410278812,-72.88874855611053
11.000000512,0.9999062968552105,-73.9209631199181
11.018867712,0.9999160062659251,-74.95356660227537
11.037735936,0.9999290174064607,-75.9866162564288
11.05660416,0.9999448386422153,-77.02017287967467
11.07547136,0.9999630100589347,-78.0542364101884
11.094339584,0.9999828067287712,-79.08884111176957
11.113207808,1.000003597518843,-80.1239957486616
11.132075008,1.000024677618967,-81.15975115562105
11.150943232,1.0000453462577727,-82.19604379049191
11.169811456,1.0000647209361353,-83.23292885206733
11.18867968,1.0000823309132534,-84.27038152876779
11.20754688,1.0000973572697571,-85.30835886522867
11.226415104,1.0001093137306205,-86.34685960072812
11.245283328,1.0001177727809683,-87.38581979712521
11.264150528,1.0001224372882125,-88.42524863275052
11.283018752,1.00012309979623,-89.46507614651149
11.301886976,1.0001195929704467,-90.50526875758423
11.3207552,1.00011229312935,-91.54576569343304
11.3396224,1.0001010858736135,-92.5865828704326
11.358490624,1.0000865355691007,-93.6276276637815
11.377358848,1.0000691557258958,-94.66889258380546
11.396226048,1.0000493749503476,-95.71035740275195
11.415094272,1.000027942349335,-96.75199141263506
11.433962496,1.0000056366885592,-97.79378755077045
11.452829696,0.999983272837241,-98.8357497684532
11.47169792,0.999961491603799,-99.87785684989265
11.490566144,0.999941167542234,-100.92014135279153
11.509434368,0.9999229511477046,-101.96262320896497
11.528301568,0.9999076292749094,-103.00532868055868
11.547169792,0.9998955479337107,-104.04829540313389
11.566038016,0.9998873618328662,-105.09155896912783
11.584905216,0.999883335706821,-106.13514865348886
11.60377344,0.9998834869458536,-107.17915204273817
11.622641664,0.9998880511341252,-108.22357350950968
11.641509888,0.999896866559392,-109.26849225126253
11.660377088,0.9999095564460941,-110.31392631620264
11.679245312,0.9999258021590093,-111.35995398166621
11.698113536,0.9999449273454467,-112.4065887221047
11.716980736,0.9999664247096858,-113.45384751373095
11.73584896,0.9999896043254357,-114.50180418309706
11.754717184,1.0000134699760792,-115.55041439104652
11.773585408,1.000037262889355,-116.59971601466057
11.792452608,1.0000602679844912,-117.6497042003374
11.811320832,1.0000815573496877,-118.70035451692586
11.830189056,1.0001003551388434,-119.7516777574569
11.849056256,1.00011606957408,-120.80361028111953
11.86792448,1.0001280663669325,-121.85613934221288
11.886792704,1.0001359989352678,-122.90921836138513
11.905659904,1.0001394230248246,-123.9627985111811
11.924528128,1.0001381744794104,-125.01683648981363
11.943396352,1.0001323886074054,-126.07128797413148
11.962264576,1.0001221141021461,-127.12608810148917
11.981131776,1.0001077824701614,-128.18121589180762
12.0,1.000089767605205,-129.23659666479452
12.018868224,1.000068760991934,-130.29222306566555
12.037735424,1.0000453487905576,-131.34806147625304
12.056603648,1.0000205419997563,-132.40407808134782
12.075471872,0.9999948710694283,-133.46028087877272
12.094340096,0.9999696055853929,-134.5166476276015
12.113207296,0.9999453254366177,-135.573178202292
12.13207552,0.9999230635527648,-136.6299107122983
12.150943744,0.9999035556415903,-137.68685344578532
12.169810944,0.9998875196451926,-138.7440481810737
12.188679168,0.9998755400454579,-139.80153948333523
12.207547392,0.9998680402624619,-140.85935621235868
12.226414592,0.9998653873519998,-141.91755289282935
12.245282816,0.9998675905269148,-142.9761737197425
12.26415104,0.9998747993676459,-144.03530121290402
12.283019264,0.999886542218981,-145.09495594303047
12.301886464,0.9999026962188176,-146.15521105259086
12.320754688,0.9999225938538177,-147.21606900011577
12.339622912,0.9999456485832023,-148.27762338279803
12.358490112,0.9999710116362364,-149.33987104758464
12.377358336,0.9999978385552115,-150.40280226712062
12.39622656,1.000025219814752,-151.46649219252546
12.415094784,1.0000521165625356,-152.5309007107857
12.433961984,1.0000776841069254,-153.59602908922892
12.452830208,1.0001009782830106,-154.66185799103405
12.471698432,1.0001211409005297,-155.72836115913609
12.490565632,1.0001375368004584,-156.79548437958374
12.509433856,1.0001495329366634,-157.86319540560115
12.52830208,1.0001565246886384,-158.93145602699653
12.547170304,1.0001584629076943,-160.0001965978629
12.566037504,1.000155050075127,-161.06934322683887
12.584905728,1.0001463622029707,-162.13886263053098
12.603773952,1.0001328717485052,-163.20869657126087
12.622641152,1.0001148502881925,-164.2787718096411
12.641509376,1.0000928585739246,-165.34907734892892
12.6603776,1.0000677041430435,-166.4195366054624
12.6792448,1.0000402750096409,-167.49013197872833
12.698113024,1.0000113805834927,-168.56083912837738
12.716981248,0.9999821298288384,-169.6316390531868
12.735849472,0.9999535098786497,-170.7025407507145
12.754716672,0.9999265818464321,-171.77354748355646
12.773584896,0.9999021344228712,-172.84467448824785
12.79245312,0.9998812532116185,-173.91594676902835
12.81132032,0.999864483619858,-174.98740898264396
12.830188544,0.9998526061830008,-176.05910979654575
12.849056768,0.9998461045858633,-177.13110402432412
12.867924992,0.9998449568865123,-178.20342331948726
12.886792192,0.9998497179261113,-179.27614357271753
12.905660416,0.9998599176668935,179.65065646655054
12.92452864,0.9998752808315532,178.57698114107671
12.94339584,0.9998953729731845,177.50273198345698
12.962264064,0.9999194777101355,176.42786324871315
12.981132288,0.9999469516917833,175.35236297759434
12.999999488,0.9999767430434016,174.2761869169834
13.018867712,1.0000078159577852,173.19933614591832
13.037735936,1.0000391182332968,172.12178805142256
13.05660416,1.0000695103889012,171.04355657385074
13.07547136,1.0000980093643128,169.96463113590002
13.094339584,1.0001235058472688,168.88508806970674
13.113207808,1.0001452371075206,167.80492556018922
13.132075008,1.0001623693774968,166.72421217309005
13.150943232,1.000174147200274,165.64299883594384
13.169811456,1.0001802272688154,164.56135820357477
13.18867968,1.0001802049468038,163.47933887131134
13.20754688,1.0001744103840995,162.39702046199815
13.226415104,1.0001624015960406,161.3144762415252
13.245283328,1.0001450230044655,160.23176618379702
13.264150528,1.0001227821900942,159.14893229241991
13.283018752,1.0000961788500082,158.06605555067964
13.301886976,1.0000662396435445,156.98316682303394
13.3207552,1.0000340298754293,155.90032345232933
13.3396224,1.0000006604152736,154.81753174072188
13.358490624,0.9999670735272009,153.73479808642668
13.377358848,0.9999347642385221,152.65213797089115
13.396226048,0.9999045102104058,151.56954008746132
13.415094272,0.9998776863242763,150.48696640852563
13.433962496,0.9998550885547689,149.40439347490192
13.452829696,0.9998375289825415,148.32178479215642
13.47169792,0.9998259067152031,147.23908050837744
13.490566144,0.9998203726665343,146.15620534655085
13.509434368,0.9998213610611071,145.07312541588064
13.528301568,0.9998287802755835,143.98975113083915
