freq,mag,phase
6.0,1.0001665235776072,-74.07696351351885
6.009367552,1.0002555065942016,-74.50452279047603
6.018735616,1.0003277244496676,-74.93316127602259
6.028103168,1.0003832529691414,-75.36280205261139
6.03747072,1.000419484078256,-75.79311643491143
6.046838272,1.0004339727279865,-76.22391560868022
6.056206336,1.0004263707751233,-76.65489704022133
6.065573888,1.0003967354213343,-77.08573768439274
6.07494144,1.00034668339176,-77.5161697409068
6.084308992,1.0002786982691,-77.94594370213242
6.093677056,1.000196186756137,-78.37486515039544
6.103044608,1.0001034290389976,-78.80271244787367
6.11241216,1.0000050822004563,-79.2294711144809
6.121779712,0.9999061535753357,-79.65502316219498
6.131147776,0.9998120720878364,-80.07943899269003
6.140515328,0.9997273700142112,-80.5027462557081
6.14988288,0.9996567189850707,-80.92517938169043
6.159250432,0.9996035478076204,-81.3468879509414
6.168618496,0.9995708690901878,-81.76814004406457
6.177986048,0.9995602905539436,-82.18921565370752
6.1873536,0.9995724626129536,-82.61042850230189
6.196721152,0.999606824327105,-83.0320044471454
6.206089216,0.9996617982453462,-83.45428870337825
6.215456768,0.9997345002959006,-83.8774958169886
6.22482432,0.9998211284540681,-84.30185394965655
6.234191872,0.9999173191851566,-84.72753932839433
6.243559936,1.000018237825517,-85.15459298527324
6.252927488,1.0001185334381815,-85.58311057166672
6.26229504,1.0002131265968195,-86.01296716782343
6.271662592,1.0002969679704026,-86.44412363454995
6.281030656,1.0003660564281391,-86.87642800836979
6.290398208,1.0004164908625588,-87.3095832053313
6.29976576,1.0004456374003532,-87.74338727477677
6.309133312,1.0004518580604858,-88.17757485715401
6.318501376,1.0004351333804546,-88.61178912254817
6.327868928,1.0003958789338463,-89.04574469066074
6.33723648,1.0003361302150966,-89.4791940315073
6.346604032,1.000259034128732,-89.91182669342531
6.355972096,1.0001682954336404,-90.34348376979675
6.365339648,1.0000687280274774,-90.77403904823984
6.3747072,0.9999654822399765,-91.20333750693422
6.384074752,0.999863672688863,-91.63143682119579
6.393442816,0.9997687823222351,-92.05835979228576
6.402810368,0.9996855775479164,-92.48418428628263
6.41217792,0.9996184788072731,-92.90914986696892
6.421545472,0.9995708742160615,-93.33346556227531
6.430913536,0.9995452650013289,-93.75740240591352
6.440281088,0.9995431906510125,-94.18125092543796
6.44964864,0.9995648636034816,-94.60530874130777
6.459016192,0.9996089936853643,-95.02996026852364
6.468384256,0.999673662191759,-95.45534390290995
6.477751808,0.9997553999736034,-95.88182946070289
6.48711936,0.9998501007053104,-96.30954665456278
6.496486912,0.9999528682074261,-96.73870919578387
6.505854976,1.000058402979215,-97.16930310310535
6.515222528,1.0001613751155638,-97.60139049405147
6.52459008,1.0002564815532315,-98.03486952398059
6.533957632,1.0003386259948823,-98.46963298810755
6.543325696,1.000403752492856,-98.90547826851487
6.552693248,1.0004482578482141,-99.34213420263572
6.5620608,1.0004697725384435,-99.7793548515089
6.571428352,1.0004674122036055,-100.21679968837837
6.580796416,1.0004409141967276,-100.65419332517642
6.590163968,1.0003917337190562,-101.0911702874558
6.59953152,1.000322313876544,-101.52752709236543
6.608899072,1.000236084272142,-101.9629594365959
6.618267136,1.000137561297507,-102.39729378172909
6.627634688,1.0000316264090088,-102.83041926630482
6.63700224,0.9999237512579489,-103.26224145131206
6.646369792,0.9998196539583517,-103.69278447897923
6.655737856,0.9997245254587175,-104.12212191016334
6.665105408,0.9996433773133163,-104.55043330727563
6.67447296,0.999580596761127,-104.9778543866063
6.683840512,0.999539150668516,-105.40470415429101
6.693208576,0.9995214925773058,-105.83125860125071
6.702576128,0.9995284815778421,-106.25789856868292
6.71194368,0.9995599356030944,-106.6848249114092
6.721311232,0.9996141350432309,-107.1124197319046
6.730679296,0.9996885441879024,-107.54093956757178
6.740046848,0.9997792359670565,-107.97067377341025
6.7494144,0.999881716135761,-108.40176134158165
6.758781952,0.9999905942218322,-108.83432318426385
6.768150016,1.0001004181209365,-109.26842734276006
6.777517568,1.000205437228246,-109.70403718492716
6.78688512,1.0003002920049278,-110.14108170144178
6.796252672,1.0003800739245654,-110.57937082567497
6.805620736,1.0004404257138657,-111.01865996405552
6.814988288,1.0004784552150938,-111.45873176204064
6.82435584,1.000492037512643,-111.89925460162917
6.833723904,1.0004802983355927,-112.33990406184678
6.843091456,1.0004438571607588,-112.78034855600207
6.852459008,1.0003845166435223,-113.22028297447038
6.86182656,1.0003052741459186,-113.65943343627764
6.871194624,1.0002100163151917,-114.09752917713415
6.880562176,1.0001038182429072,-114.5344278466819
6.889929728,0.9999920417134835,-114.96998289763872
6.89929728,0.9998801205274319,-115.40420003759903
6.908665344,0.9997743304871374,-115.83711996593537
6.918032896,0.9996797489838133,-116.26882366938844
6.927400448,0.9996014705751032,-116.69941814670304
6.936768,0.9995434310087712,-117.12929233086376
6.946136064,0.9995089241141654,-117.5586241973516
6.955503616,0.9994996531431884,-117.98775337731067
6.964871168,0.9995161602919951,-118.41704641665659
6.97423872,0.9995577567550226,-118.84679100093358
6.983606784,0.9996221778231601,-119.27734333501539
6.992974336,0.9997064510087734,-119.7089454126372
7.002341888,0.9998059711016021,-120.14185379432605
7.01170944,0.9999160675365565,-120.57621911845372
7.021077504,1.0000307432177054,-121.01218524980476
7.030445056,1.0001442621548353,-121.44971441572422
7.039812608,1.0002507247478716,-121.8887725696306
7.04918016,1.0003447367152223,-122.32926916954513
7.058548224,1.0004212484834096,-122.77100776158844
7.067915776,1.0004764872909575,-123.21369237894115
7.077283328,1.000507272761596,-123.65706284111776
7.08665088,1.0005121462484847,-124.10076779502783
7.096018944,1.0004906994576415,-124.54444263297323
7.105386496,1.000444027875544,-124.98783409859551
7.114754048,1.0003744191646653,-125.4305358874007
7.1241216,1.0002853218239403,-125.87234094160647
7.133489664,1.0001812551129268,-126.31295579347481
7.142857216,1.000067648601987,-126.75227531930189
7.152224768,0.9999501771721805,-127.19017942620552
7.16159232,0.9998350007169268,-127.62666827993617
7.170960384,0.9997278963048033,-128.06176950640815
7.180327936,0.99963457029982,-128.49569176011153
7.189695488,0.9995597839214574,-128.9285856990522
7.19906304,0.9995073764140111,-129.36073344037916
7.208431104,0.9994803084494833,-129.79244609228064
7.217798656,0.9994799688371725,-130.22409143906245
7.227166208,0.9995064118846365,-130.65597956385943
7.23653376,0.9995583967480566,-131.0884436585567
7.245901824,0.9996332541151968,-131.5218641785669
7.255269376,0.9997273319081239,-131.9564531819464
7.264636928,0.9998357626484395,-132.39246195580958
7.27400448,0.9999530023089223,-132.83004473391438
7.283372544,1.0000731316069524,-133.26928283355502
7.292740096,1.0001898553075603,-133.71016404771166
7.302107648,1.0002971871844675,-134.15261330610622
7.3114752,1.0003896599542759,-134.59646326547232
7.320843264,1.0004623432037691,-135.0414870328194
7.330210816,1.0005115168866574,-135.4874086547307
7.339578368,1.0005346019370782,-135.93393653064393
7.34894592,1.0005303523935694,-136.38064931400658
7.358313984,1.000498703264226,-136.82726084515903
7.367681536,1.0004413847428366,-137.2733985559219
7.377049088,1.0003612497193062,-137.71872410911382
7.38641664,1.0002622935461227,-138.16301282636311
7.395784704,1.0001495349801772,-138.60600892951564
7.405152256,1.0000287115486484,-139.04756712409565
7.414519808,0.9999061114222054,-139.48762541565364
7.42388736,0.9997879085147438,-139.9262002365698
7.433255424,0.9996803185263293,-140.36339595498058
7.442622976,0.9995887541729097,-140.79937133826223
7.451990528,0.9995181236916703,-141.2343884268354
7.46135808,0.9994720557841841,-141.66873186309388
7.470726144,0.9994530633349141,-142.10270101627256
7.480093696,0.9994621831065948,-142.53669088619728
7.489461248,0.9994990103187906,-142.97107851464895
7.4988288,0.9995617560667535,-143.40618659640992
7.508196864,0.9996472656566098,-143.84236929474457
7.517564416,0.9997511751139176,-144.27982316629328
7.526931968,0.9998682903802245,-144.71885243849755
7.53629952,0.999992589424299,-145.15954777257093
7.545667584,1.000117588822458,-145.601945147852
7.555035136,1.0002370463225747,-146.04604338365934
7.564402688,1.0003446792082247,-146.4917204922574
7.57377024,1.000434942360392,-146.9387580278324
7.583138304,1.0005031124934405,-147.3869586273691
7.592505856,1.0005457598493999,-147.83599940420385
7.601873408,1.0005603909951764,-148.28547967783996
7.611241472,1.0005463694182242,-148.73507636748695
7.620609024,1.0005041733633036,-149.18440903853775
7.629976576,1.0004359325742591,-149.63311578224818
7.639344128,1.0003451576251505,-150.0809048119987
7.648712192,1.0002362797611093,-150.5274640038076
7.658079744,1.000114896262926,-150.97261516756151
7.667447296,0.9999872078592857,-151.41623054839417
7.676814848,0.9998598351485259,-151.8582769649387
7.686182912,0.9997391865920084,-152.29879581324727
7.695550464,0.9996315327752122,-152.7378715752655
7.704918016,0.9995424954582978,-153.17576199059775
7.714285568,0.9994767697200215,-153.6127148041539
7.723653632,0.9994376561162945,-154.04905581238134
7.733021184,0.9994273434072877,-154.4851566259693
7.742388736,0.9994464879714293,-154.92137978583057
7.751756288,0.9994942271234565,-155.35811276860542
7.761124352,0.9995680306225413,-155.79572591985985
7.770491904,0.9996643469904015,-156.23453311284985
7.779859456,0.9997782264706813,-156.6747616365886
7.789227008,0.9999038652983466,-157.1166405498499
7.798595072,1.0000348243293327,-157.56030079594404
7.807962624,1.0001645375347308,-158.00574977182904
7.817330176,1.0002860866626933,-158.45294770761936
7.826697728,1.0003933246702716,-158.90169337442026
7.836065792,1.0004808733000778,-159.35181831362044
7.845433344,1.0005439079138088,-159.80300373397293
7.854800896,1.0005791701901754,-160.2549237531337
7.864168448,1.000584920869102,-160.70720650160004
7.873536512,1.000560448349292,-161.1594647590375
7.882904064,1.0005072726524054,-161.61132182967322
7.892271616,1.0004277776449544,-162.06241654224667
7.901639168,1.0003260786967767,-162.51239314325034
7.911007232,1.0002073655452663,-162.96104438738612
7.920374784,1.0000774886478634,-163.408157582749
7.929742336,0.9999431992099893,-163.853613000409
7.939109888,0.999811441279481,-164.2974137286181
7.948477952,0.9996887807015701,-164.7396290134528
7.957845504,0.9995818199882475,-165.1804361291535
7.967213056,0.999495934406174,-165.62000729894984
7.976580608,0.9994357089843673,-166.0587520163515
7.985948672,0.9994041844873935,-166.496937310251
7.995316224,0.9994033729651085,-166.93496425449635
8.004683776,0.9994330747417995,-167.37327424951127
8.014051328,0.9994920826279224,-167.8122199651725
8.023419392,0.9995773560819202,-168.2521449650582
8.032786944,0.9996846293988988,-168.69343846211888
8.042154496,0.999808433935888,-169.13630503541046
8.051522048,0.9999425192633227,-169.580918426352
8.060890112,1.000079966295528,-170.02739887359402
8.070257664,1.0002137822537285,-170.47570152677196
8.079625216,1.0003370790370014,-170.9257925167717
8.088992768,1.000443465315859,-171.3774562609203
8.098360832,1.0005273190915331,-171.8304461318967
8.107728384,1.0005844815107854,-172.2844322665564
8.117095936,1.0006118379028766,-172.7390772301667
8.126463488,1.0006077820013533,-173.19395024653227
8.135831552,1.0005725847117732,-173.64866918782326
8.145199104,1.0005078503372657,-174.10281657447217
8.154566656,1.0004168646646898,-174.55603636531862
8.163934208,1.0003039654651569,-175.00800073193594
8.173302272,1.000175287255495,-175.45849034353157
8.182669824,1.0000370450189506,-175.90729594784298
8.192037376,0.9998963840046222,-176.3543777578456
8.201404928,0.9997605709319387,-176.79971399001667
8.210772992,0.9996365958498988,-177.24343957705744
8.220140544,0.9995308749136399,-177.6856632846642
8.229508096,0.9994488176183522,-178.12678523745706
8.238875648,0.9993949145612172,-178.56707026732983
8.248243712,0.9993717367176408,-179.00690726089366
8.257611264,0.9993808175311423,-179.44668383635
8.266978816,0.999421696074674,-179.88689578100113
8.276346368,0.9994924366145927,179.67216202578376
8.285714432,0.9995894625214092,179.23001985766754
8.295081984,0.9997080002764303,178.7864380953745
8.304449536,0.9998418245951752,178.34112827740054
8.313817088,0.9999841867914373,177.8939327674812
8.323185152,1.000127898645854,177.444827917553
8.332552704,1.0002654043071355,176.9938056022485
8.341920256,1.0003897867694145,176.54097930895824
8.351287808,1.000494572715734,176.08662406402962
8.360655872,1.0005744088978832,175.6309407467111
8.370023424,1.0006248639893671,175.17434598981356
8.379390976,1.0006434982671235,174.7172349168233
8.388758528,1.0006291566082182,174.25998536311795
8.398126592,1.000582425702285,173.80307297638387
8.407494144,1.0005057235247021,173.34687990855215
8.416861696,1.0004027259809831,172.89177224752984
8.42622976,1.0002786411561564,172.43806859139278
8.435597312,1.0001398824520107,171.98602014741329
8.444964864,0.999993373531406,171.53575284705906
8.454332416,0.9998467826167151,171.08730435205726
8.46370048,0.9997073358169627,170.64070381735897
8.473068032,0.9995824497024598,170.19576457741883
8.482435584,0.9994786528510811,169.7522435084007
8.491803136,0.9994010959841926,169.30987134994922
8.5011712,0.9993541316839488,168.8682573998188
8.510538752,0.999340088891277,168.42699869906025
8.519906304,0.9993598830971361,167.9856451923805
8.529273856,0.9994126180524302,167.54377678649786
8.53864192,0.9994957081680098,167.10097914918722
8.548009472,0.9996049634186707,166.6568629662444
8.557377024,0.9997348368830123,166.2111131372259
8.566744576,0.9998786959132574,165.76353771032953
8.57611264,1.0000293391398105,165.31396027869548
8.585480192,1.0001789146504954,164.86238982532302
8.594847744,1.0003198379748393,164.40884153546023
8.604215296,1.0004448019956529,163.9535062765743
8.613582848,1.0005474325705515,163.4965996096236
8.6229504,1.0006221957724486,163.03848226330743
8.632318976,1.0006654406006543,162.57950928445754
8.641686528,1.0006745430114863,162.12010851273897
8.65105408,1.0006492454964728,161.66075938828135
8.660421632,1.0005903698232983,161.20186992279847
8.669789184,1.0005011761176217,160.7438962171993
8.679156736,1.0003858081126162,160.2871667199373
8.688524288,1.0002502144409944,159.8319929391244
8.69789184,1.0001013452808278,159.37864333319806
8.707260416,0.9999466563148087,158.92719671951878
8.716627968,0.9997941791057811,158.4776832376983
8.72599552,0.9996516086773537,158.03006537335597
8.735363072,0.9995264856254935,157.5841292483188
8.744730624,0.9994251853774994,157.1396383331429
8.754098176,0.9993529169426408,156.69622968688086
8.763465728,0.9993137217118426,156.25352468566024
8.77283328,0.9993095709557482,155.81105962818302
8.782201856,0.9993408156385136,155.36835523166062
8.791569408,0.9994060022218468,154.9250095292519
8.80093696,0.9995019343715456,154.48054532399973
8.810304512,0.9996238069946436,154.0346384283119
8.819672064,0.9997653354135169,153.58696398103706
8.829039616,0.9999193187392139,153.1372954166831
8.838407168,1.000078079546071,152.68554974933616
8.84777472,1.0002333204224014,152.23168064087469
8.857143296,1.0003771713437757,151.7758144491379
8.866510848,1.0005021285149474,151.31813030843065
8.8758784,1.0006018108715569,150.85894696852074
8.885245952,1.000670959289447,150.39855599085865
8.894613504,1.0007058953014492,149.93743253338067
8.903981056,1.0007048710585988,149.47603765082593
8.913348608,1.0006676819256368,149.01482759290496
8.92271616,1.0005960060789825,148.55421965583994
8.932084736,1.000493615791293,148.0947221381793
8.941452288,1.000365488038935,147.63665087900722
8.95081984,1.0002180887630145,147.18030835426285
8.960187392,1.0000590162801202,146.72593247487106
8.969554944,0.9998962265933296,146.27357321064196
8.978922496,0.9997382400372392,145.8232818659121
8.988290048,0.9995929803580934,145.3749083172085
8.9976576,0.9994682403545411,144.928275249677
9.007026176,0.9993702139324206,144.48306206990364
9.016393728,0.9993041115972819,144.03889431273242
9.02576128,0.999273502596219,143.59530332272914
9.035128832,0.9992800122095012,143.15186466257362
9.044496384,0.9993235845823182,142.708064595657
9.053863936,0.9994019231179949,142.2634372439761
9.063231488,0.9995114337609311,141.8175381515024
9.07259904,0.9996462062389195,141.37001326045439
9.081967616,0.9997996670907989,140.9205807980092
9.091335168,0.999963895269907,140.46903049874456
9.10070272,1.0001306595049855,140.01526804630208
9.110070272,1.0002913157866735,139.55933098417927
9.119437824,1.0004375813876585,139.10134025745964
9.128805376,1.000561933833479,138.64153781246955
9.138172928,1.0006579284241344,138.1802313071493
9.14754048,1.0007205700572395,137.7178510667914
9.156909056,1.0007464008811735,137.254786579109
9.166276608,1.0007341666337086,136.7916403838526
9.17564416,1.0006843595157904,136.3287970870507
9.185011712,1.0005991292615328,135.86679023224784
9.194379264,1.0004829037832355,135.40603112878554
9.203746816,1.0003414652281772,134.9468724110483
9.213114368,1.0001820746712364,134.48964526957133
9.222482944,1.0000126425888929,134.03454384760713
9.231850496,0.9998419682705378,133.5816003448689
9.241218048,0.9996787534807386,133.13077423156693
9.2505856,0.9995313883843743,132.68197536566365
9.259953152,0.9994074953557777,132.23489961526562
9.269320704,0.9993134994506796,131.7892307318487
9.278688256,0.9992543661589712,131.3445420115441
9.288055808,0.9992332972198773,130.90036157936248
9.297424384,0.9992516339655579,130.45617017276103
9.306791936,0.9993081934308037,130.01146618987826
9.316159488,0.9994006606782119,129.56578215343112
9.32552704,0.9995242130754809,129.1186570274692
9.334894592,0.9996725875876741,128.669712572337
9.344262144,0.9998382760629554,128.21871229479152
9.353629696,1.0000128588973243,127.76543962431812
9.362997248,1.0001875599021082,127.30986804737556
9.372365824,1.00035313454008,126.85204778541026
9.381733376,1.0005012881453672,126.39210989762226
9.391100928,1.0006243332884484,125.93036832503947
9.40046848,1.0007159436096662,125.46719264616401
9.409836032,1.0007710533966432,125.00300103170063
9.419203584,1.0007869098242113,124.53827009916233
9.428571136,1.000762567513586,124.07357493546492
9.437938688,1.0006990524317365,123.60939222664372
9.447307264,1.0005994471426458,123.14620671401225
9.456674816,1.0004687834433144,122.68447562791454
9.466042368,1.000313536108722,122.22455990025543
9.47540992,1.0001417392740184,121.76673825753662
9.484777472,0.9999619322971994,121.31117789943082
9.494145024,0.9997834281570855,120.85793327305598
9.503512576,0.9996152679370576,120.40691830953368
9.512880128,0.9994662585810559,119.95793331253562
9.522248704,0.9993440688373691,119.5107098965163
9.531616256,0.9992549905785649,119.0648431158587
9.540983808,0.9992038875529377,118.61989400960475
9.55035136,0.9991934093819598,118.17533556781967
9.559718912,0.9992242858162186,117.73063916028057
9.569086464,0.9992951416131505,117.28526417267133
9.578454016,0.9994024305663165,116.83870518789055
9.587821568,0.9995407170409031,116.39052978655455
9.597190144,0.999703158206537,115.94038199625824
9.606557696,0.9998814766164589,115.48798185269409
9.615925248,1.0000665690086428,115.0331869235642
9.6252928,1.000248833518835,114.5759693725142
9.634660352,1.0004191980021393,114.11640639883358
9.644027904,1.0005687741669793,113.65473992835803
9.653395456,1.0006896543136214,113.19124837597477
9.662763008,1.000775769299508,112.7263884897272
9.672131584,1.0008224954924703,112.26061035197392
9.681499136,1.0008272949351924,111.79444384955814
9.690866688,1.0007897186835844,111.32843843920924
9.70023424,1.0007115469331431,110.86316335728051
9.709601792,1.0005966481299962,110.39909594677698
9.718969344,1.000450750654683,109.9366604054202
9.728336896,1.0002812106652077,109.47625974539714
9.737704448,1.0000965535929478,109.01812673778637
9.747073024,0.9999062544930236,108.56240712837959
