freq,mag,phase
6.0,1.000674105277932,20.36810402892228
6.008800768,1.0005275843620727,20.122032005812144
6.017601536,1.0003532606104504,19.87805195740011
6.026402816,1.0001599304147109,19.63651068188531
6.035203584,0.9999580376919471,19.39758597695673
6.044004352,0.999758233494891,19.161341787028643
6.05280512,0.9995711427247913,18.927639630925096
6.0616064,0.999406831398783,18.696216626066363
6.070407168,0.9992741641471757,18.466825560154152
6.079207936,0.999180045363308,18.238905694779774
6.088008704,0.9991297619786584,18.011953371736663
6.096809472,0.999125845181824,17.785309264118524
6.105610752,0.9991686290551963,17.558416904534027
6.11441152,0.9992559180098636,17.33063949143908
6.123212288,0.9993828931340182,17.101420271414373
6.132013056,0.9995429350496283,16.87029874505556
6.140814336,0.9997274510282328,16.63682178537921
6.149615104,0.9999267432102469,16.400782899640436
6.158415872,1.0001300997203169,16.162071707143422
6.16721664,1.000326627928395,15.920597793410261
6.176017408,1.0005059907820641,15.67669474755733
6.184818688,1.0006584923913553,15.430491382919676
6.193619456,1.0007761151550558,15.182519886286768
6.202420224,1.0008525128067114,14.933259746447561
6.211220992,1.0008835514506833,14.683200936936048
6.22002176,1.000867618348571,14.433067759342487
6.22882304,1.000805497902891,14.183411037967153
6.237623808,1.000700506795038,13.93482588124042
6.246424576,1.000558114000431,13.687883869584551
6.255225344,1.0003859548632765,13.443004329538317
6.264026624,1.0001930958800371,13.200516807387555
6.272827392,0.9999897961821874,12.960654952936872
6.28162816,0.9997868835309917,12.723498008153259
6.290428928,0.9995952252769221,12.488945319293494
6.299229696,0.9994250396630942,12.256774297189116
6.308030976,0.9992854241664687,12.026648222141105
6.316831744,0.9991838640202977,11.798119312087891
6.325632512,0.9991257236124733,11.570627060865084
6.33443328,0.9991142274546889,11.34361851510718
6.34323456,0.9991500663566623,11.116431935984773
6.352035328,0.999231297594383,10.888433997168871
6.360836096,0.9993536098266456,10.659081811126546
6.369636864,0.9995104884738707,10.427792272022081
6.378437632,0.9996936656530714,10.194290007037168
6.387238912,0.9998932815295685,9.958179151779001
6.39603968,1.0000987495368987,9.719377661900891
6.404840448,1.0002992122384644,9.477855079049261
6.413641216,1.0004837759354663,9.233700359365532
6.422442496,1.0006427887458107,8.987295141966442
6.431243264,1.0007676619751744,8.73893131722068
6.440044032,1.0008518399861992,8.48921920417034
6.4488448,1.000890701623819,8.238624381448322
6.457645568,1.0008821368889749,7.987807313159505
6.466446848,1.0008267776700601,7.737401458334583
6.475247616,1.0007271947129666,7.488003450775886
6.484048384,1.0005888769093971,7.2401499529793965
6.492849152,1.0004191071872972,6.994317566518248
6.50164992,1.0002268610546048,6.7508632726874644
6.5104512,1.0000224093780745,6.510043497364935
6.519251968,0.9998166405856234,6.27192203988378
6.528052736,0.9996204669112849,6.036463755061501
6.536853504,0.9994443969039453,5.803474659500683
6.545654784,0.9992976710595776,5.572622526290221
6.554455552,0.999188501117022,5.3434787273392015
6.56325632,0.9991225084015,5.115453881588943
6.572057088,0.9991033502092375,4.888017647089849
6.580857856,0.9991319541483673,4.66046731224913
6.589659136,0.999206913635586,4.432217380113965
6.598459904,0.9993243193339052,4.202696498513865
6.607260672,0.9994778526690813,3.971325914986586
6.61606144,0.9996593886030484,3.7377267639188094
6.62486272,0.9998591377498756,3.5015238089155405
6.633663488,1.000066639674362,3.2626211458972803
6.642464256,1.0002707401983506,3.020962089802554
6.651265024,1.000460639956364,2.7766570239519894
6.660065792,1.0006261558573628,2.5299417515693268
6.668867072,1.0007583132249702,2.281244339919181
6.67766784,1.0008503797999933,2.0310546232728783
6.686468608,1.0008972784425192,1.7798855110643355
6.695269376,1.0008962382065443,1.5284193381934672
6.704070656,1.0008476872655205,1.2772211552366572
6.712871424,1.0007539447749876,1.0269940081536708
6.721672192,1.0006199088015202,0.7781801689690322
6.73047296,1.0004528687639802,0.5313889830237927
6.739273728,1.000261454184088,0.286959030203236
6.748075008,1.0000559809671399,0.0451301343040467
6.756875776,0.9998473591434696,-0.19395386716495175
6.765676544,0.9996467261349875,-0.4303363794990373
6.774477312,0.9994647283347706,-0.6641823834099866
6.78327808,0.9993111593703126,-0.8958203834356802
6.79207936,0.9991942140274709,-1.1256600089820694
6.800880128,0.9991201689239623,-1.3542200909125104
6.809680896,0.9990930724506085,-1.5821529720161003
6.818481664,0.9991142748659166,-1.8100689703094195
6.827282944,0.9991826744111739,-2.038574872217447
6.836083712,0.9992949781666057,-2.2683093017773843
6.84488448,0.9994447307283628,-2.4998278129157345
6.853685248,0.999624321210749,-2.733540815260153
6.862486016,0.9998241163149414,-2.969801145647622
6.871287296,1.0000334864201517,-3.2088154842552736
6.880088064,1.000241187044516,-3.450604307011707
6.888888832,1.000436181835741,-3.695105910067016
6.8976896,1.0006082457275878,-3.942109257560051
6.90649088,1.0007478329127122,-4.191149947489147
6.915291648,1.000847852275185,-4.44183478527564
6.924092416,1.0009028092996515,-4.693558151718215
6.932893184,1.000909811207324,-4.9457461818783255
6.941693952,1.0008682707179735,-5.197736088447572
6.950495232,1.0007804856776894,-5.448854324031419
6.959296,1.0006511036043468,-5.698588337338312
6.968096768,1.0004869141950012,-5.946368365025798
6.976897536,1.0002966106132247,-6.191827752674758
6.985698816,1.0000904325465416,-6.434669952502244
6.994499584,0.9998791506430874,-6.674771833192087
7.003300352,0.9996740897080594,-6.912134263141151
7.01210112,0.999486299828159,-7.1468657740018875
7.020901888,0.999325724936102,-7.379303035070161
7.029703168,0.9992009365473898,-7.6098893449637215
7.038503936,0.9991186006688755,-7.839064456029182
7.047304704,0.9990833696108489,-8.067467458268869
7.056105472,0.9990969124786936,-8.295767627013438
7.06490624,0.9991587376834877,-8.524586348982037
7.07370752,0.999265418085962,-8.754553656642244
7.082508288,0.9994113103056679,-8.986198571122541
7.091309056,0.9995888355848401,-9.220041337531766
7.100109824,0.9997884182382591,-9.456408452232486
7.108911104,0.9999993679459688,-9.695530907976865
7.117711872,1.0002105893166304,-9.93745265892894
7.12651264,1.000410735377681,-10.18219930915551
7.135313408,1.0005892492658435,-10.429426735625283
7.144114176,1.0007364129655474,-10.67888400741221
7.152915456,1.0008444635735805,-10.93005024361652
7.161716224,1.0009077684419811,-11.182372571500366
7.170516992,1.0009228139086312,-11.435247504205005
7.17931776,1.0008886649326496,-11.688016583580378
7.18811904,1.0008071493906037,-11.940035184151458
7.196919808,1.0006826464222383,-12.190740247894487
7.205720576,1.0005216270058879,-12.439582214010338
7.214521344,1.0003327090403316,-12.686111698241994
7.223322112,1.0001258419784826,-12.930022268922567
7.232123392,0.9999120876568733,-13.171171152804813
7.24092416,0.9997027968554009,-13.409512248018077
7.249724928,0.9995090405540171,-13.645213605954266
7.258525696,0.9993414028515142,-13.878506532462985
7.267326976,0.9992088210469574,-14.109809243321628
7.276127744,0.9991181983595087,-14.339641306155901
7.284928512,0.9990744374758047,-14.568598693801336
7.29372928,0.9990800911001234,-14.797328097113736
7.302530048,0.9991348747881924,-15.026474382798742
7.311331328,0.999235770221345,-15.256640397584572
7.320132096,0.9993774934693528,-15.488489579734445
7.328932864,0.9995526465510199,-15.722434015225893
7.337733632,0.9997517298062181,-15.958917996881395
7.3465344,0.9999642000202532,-16.19816140793899
7.35533568,1.0001788491883727,-16.440274779146126
7.364136448,1.0003840523583383,-16.685232437266258
7.372937216,1.0005688827524284,-16.932753261420487
7.381737984,1.0007237678177079,-17.182567372724463
7.390539264,1.0008401658423938,-17.43420758034908
7.399340032,1.0009118909296055,-17.687170591174276
7.4081408,1.00093523250909,-17.940749941137213
7.416941568,1.0009086628922916,-18.194334628320604
7.425742336,1.0008338239806873,-18.447299606371384
7.434543616,1.0007143710820383,-18.69898762809992
7.443344384,1.000556967529117,-18.94886337732473
7.452145152,1.0003695037489995,-19.196499027648464
7.46094592,1.00016224321183,-19.441505176350304
7.4697472,0.9999461372802794,-19.683731615915278
7.478547968,0.9997326044016062,-19.923137179027634
7.487348736,0.9995332575803022,-20.15979985106874
7.496149504,0.9993583977599274,-20.393971913390118
7.504950272,0.9992177880491306,-20.626073848652947
7.513751552,0.999118505610961,-20.856593500781837
7.52255232,0.9990662762904851,-21.08611337359696
7.531353088,0.9990638286776811,-21.31528180007868
7.540153856,0.9991112391549246,-21.544797884538212
7.548955136,0.9992060953408076,-21.77525088500657
7.557755904,0.9993433694032884,-22.007283519570016
7.566556672,0.9995158760024204,-22.241385260779843
7.57535744,0.999714210732929,-22.478009832850873
7.584158208,0.9999279312260559,-22.71740502449616
7.592959488,1.0001458839615258,-22.959651068523677
7.601760256,1.0003560564200447,-23.20482385261243
7.610561024,1.0005474540458879,-23.45266129037112
7.619361792,1.0007099962240842,-23.702837858946953
7.628163072,1.0008346447863032,-23.955017539920757
7.63696384,1.0009153025185302,-24.20853786832312
7.645764608,1.0009469118828898,-24.462900252421417
7.654565376,1.0009283077379867,-24.7173322377616
7.663366144,1.0008603241319303,-24.971217431678316
7.672167424,1.0007463612207446,-25.223929852328414
7.680968192,1.0005926833761678,-25.474890152212
7.68976896,1.0004070493905592,-25.723632342211964
7.698569728,1.0001996393096764,-25.969803924206175
7.707370496,0.9999813443089386,-26.213144095833623
7.716171776,0.9997638141646583,-26.453614531579003
7.724972544,0.9995586455209569,-26.691304350393494
7.733773312,0.9993766825505389,-26.926421729747965
7.74257408,0.9992278565147525,-27.159347280947195
7.75137536,0.9991199944863546,-27.39058602368217
7.760176128,0.9990589342565745,-27.620704138869716
7.768976896,0.9990479610138818,-27.85040690333223
7.777777664,0.9990878897867382,-28.08024014528461
7.786578432,0.9991763572382902,-28.31102072962821
7.795379712,0.9993089761037874,-28.5432933535239
7.80418048,0.9994783537252181,-28.777559710245267
7.812981248,0.9996758040379248,-29.014305332488643
7.821782016,0.9998907261021659,-29.253833180985797
7.830583296,1.0001115661011528,-29.49628020172151
7.839384064,1.0003267173679018,-29.74166030929245
7.848184832,1.000524681372232,-29.989783198124364
7.8569856,1.0006948255759789,-30.240418363727997
7.865786368,1.000828241446945,-30.493056791938862
7.874587648,1.00091756435305,-30.74724285717467
7.883388416,1.0009580751542297,-31.00231791565077
7.892189184,1.0009477680967431,-31.257615032325084
7.900989952,1.0008868960374948,-31.512458840072096
7.909791232,1.0007787006374351,-31.76623651831137
7.918592,1.0006289701151883,-32.01830569540268
7.927392768,1.0004456753708577,-32.26820157150539
7.936193536,1.000238268183616,-32.51553283993647
7.944994304,1.0000180149039863,-32.76002567504782
7.953795584,0.9997964473068609,-33.00165048469602
7.962596352,0.9995855052399395,-33.240383341496965
7.97139712,0.9993964977718431,-33.47648710351049
7.980197888,0.9992392968975611,-33.71030514628973
7.988998656,0.9991226662538261,-33.942301180404336
7.997799936,0.9990525535663022,-34.17308336389345
8.006600704,0.9990328357409424,-34.4032600986254
8.015401472,0.99906483378371,-34.63354039208386
8.02420224,0.9991467321643124,-34.864632033100555
8.03300352,0.9992741860006658,-35.09711612782384
8.041804288,0.9994403398595114,-35.33157312497626
8.050605056,0.9996365844394789,-35.56848759578214
8.059405824,0.9998522623401822,-35.80817711591303
8.068206592,1.0000761384713477,-36.05078205666331
8.077007872,1.000296144398801,-36.296401927315046
8.08580864,1.000500624186057,-36.54487331041752
8.094609408,1.0006784923668217,-36.795869669969015
8.103410176,1.0008205579522556,-37.04904613406121
8.112211456,1.0009190473815661,-37.30385587341664
8.121012224,1.0009686694489655,-37.55967855887176
8.129812992,1.000966744003709,-37.81583997601023
8.13861376,1.0009134135634283,-38.07169739954085
8.147414528,1.0008113853233573,-38.326538972330866
8.156215808,1.000666049528613,-38.579787298693304
8.165016576,1.0004849319419447,-38.830865784042714
8.173817344,1.000277969470983,-39.07942064146413
8.182618112,1.0000557941967747,-39.32513792606192
8.191419392,0.9998305526349544,-39.567873384091136
8.20022016,0.9996139273763409,-39.80771317196102
8.209020928,0.9994176412705289,-40.04483881224315
8.217821696,0.9992521177820122,-40.27957197819553
8.226622464,0.9991263564175037,-40.51238044870252
8.235423744,0.9990471277082016,-40.743823006674454
8.244224512,0.9990184072369713,-40.97459083128198
8.25302528,0.9990420538251337,-41.20532888838911
8.261826048,0.999116844650596,-41.436772813625446
8.270626816,0.9992388275835281,-41.66952086904423
8.279428096,0.9994015190246174,-41.9041805608109
8.288228864,0.9995962106923223,-42.141268379339174
8.297029632,0.999812621625191,-42.38109833031437
8.3058304,1.000039449603663,-42.623913847821754
8.31463168,1.0002641372781131,-42.86975612721104
8.323432448,1.0004749966506683,-43.11852599000202
8.332233216,1.0006608282053724,-43.36995865969488
8.341033984,1.000811597824491,-43.62365839584926
8.349834752,1.0009194239886121,-43.87912977836725
8.358636032,1.0009784699249877,-44.13569769249277
8.3674368,1.0009853218943836,-44.39278946721355
8.376237568,1.000939818858586,-44.64961315900746
8.385038336,1.0008441949122606,-44.90556780390964
8.393839616,1.0007034785497202,-45.15996477553636
8.402640384,1.0005253257395164,-45.41228452409029
8.411441152,1.0003187658630157,-45.66208951298177
8.42024192,1.0000950835037028,-45.909031409990824
8.429042688,0.9998660641081955,-46.15302449672434
8.437843968,0.9996438760950287,-46.394026004985726
8.446644736,0.9994402056802398,-46.63220911155788
8.455445504,0.9992664178615163,-46.86788411584997
8.464246272,0.9991313122659418,-47.101540320592676
8.473047552,0.9990423970253297,-47.333713411903915
8.48184832,0.9990045878519117,-47.5650847402775
8.490649088,0.9990196811887548,-47.79630190422223
8.499449856,0.9990871313445824,-48.02810562085232
8.508250624,0.9992032047719251,-48.26112684722706
8.517051904,0.9993620417819385,-48.4960099825271
8.525852672,0.999555044973904,-48.73327956413574
8.53465344,0.9997719305289093,-48.973303017610796
8.543454208,1.0000010138570705,-49.21632794776498
8.552254976,1.0002305420041362,-49.462407938604215
8.561056256,1.0004480205286614,-49.71148601956226
8.569857024,1.0006416828928184,-49.96336192643546
8.578657792,1.0008015605007052,-50.21757672302057
8.58745856,1.000918868978084,-50.47371421193991
8.59625984,1.0009873261046571,-50.73108149276249
8.605060096,1.001003411465845,-50.98904784380678
8.613861376,1.0009661299036487,-51.246928279324116
8.622662656,1.0008773343573685,-51.50400427806215
8.631462912,1.0007418748908274,-51.75961814112759
8.640264192,1.0005664744222464,-52.01318659184931
8.649064448,1.0003608522453271,-52.264268077883465
8.657865728,1.0001357399186437,-52.512520900671156
8.666667008,0.9999030342368302,-52.757784171316224
8.675467264,0.9996753013681746,-52.99996674036301
8.684268544,0.9994644780693918,-53.23926290473561
8.6930688,0.9992819329238105,-53.47595627314678
8.70187008,0.9991375137736865,-53.71051505548031
8.71067136,0.9990388515016697,-53.943456657891666
8.719471616,0.9989912987081362,-54.17544409877856
8.728272896,0.9989975661954521,-54.40717489448986
8.737074176,0.9990571451689941,-54.63937248471175
8.745874432,0.9991672179497672,-54.87273410474583
8.754675712,0.9993216965482813,-55.10787428895026
8.763475968,0.9995126243050376,-55.345306346015136
8.772277248,0.9997296805323765,-55.58551353636576
8.781078528,0.9999613762130553,-55.82874714488312
8.789878784,1.0001953628344462,-56.075080688180634
8.798680064,1.0004191592503437,-56.324503417863774
8.80748032,1.0006210140716798,-56.57676267122731
8.8162816,1.0007899381671626,-56.831551828213925
8.82508288,1.0009170303225612,-57.088352371378285
8.833883136,1.0009955769485035,-57.3465031006101
8.842684416,1.0010210549240777,-57.60540149283051
8.851484672,1.000992401659493,-57.86434801794477
8.860285952,1.0009109075890257,-58.12255543913833
8.869087232,1.0007806106056285,-58.379404762560306
8.877887488,1.0006088530737958,-58.634290501103955
8.886688768,1.0004041801038102,-58.88673060524183
8.895490048,1.000177964229218,-59.136287464297496
8.904290304,0.9999418423671719,-59.38286175265867
8.913091584,0.9997085740085353,-59.626297381006516
8.92189184,0.9994904715219022,-59.866751509881595
8.93069312,0.9992992735823918,-60.10452808728188
8.9394944,0.9991451247858371,-60.340014429844665
8.948294656,0.9990364930477729,-60.5737504129862
8.957095936,0.9989789601166246,-60.806441027152644
8.965896192,0.9989758910099149,-61.03870560433927
8.974697472,0.9990274421646547,-61.271344316487344
8.983498752,0.9991307869568293,-61.505045173133524
8.992299008,0.9992806997401432,-61.740422018421384
9.001100288,0.9994691121910247,-61.9780915584813
9.009900544,0.999686046211647,-62.21847308498589
9.018701824,0.9999201103236328,-62.46190627817902
9.027503104,1.0001584700827424,-62.70854184322142
9.03630336,1.0003887472103516,-62.95827312451265
9.04510464,1.0005987443233757,-63.210960612943474
9.053904896,1.0007769471809573,-63.46629626046059
9.062706176,1.000914102698137,-63.723750664249074
9.071507456,1.001002754613119,-63.9827384054656
9.080307712,1.0010382338548454,-64.24258116585129
9.089108992,1.0010184474229937,-64.50259550965444
9.097910272,1.0009444207631446,-64.76199064528757
9.106710528,1.0008200963265497,-65.02014190317148
9.115511808,1.0006520267923473,-65.27634749836139
9.124312064,1.00044888295059,-65.53013891355997
9.133113344,1.0002216765993253,-65.78112052512456
9.141914624,0.999982353335999,-66.02900110226392
9.15071488,0.9997435647100107,-66.2737558813631
9.15951616,0.9995181646768654,-66.5154491636577
9.168316416,0.9993180731226602,-66.754330311675
9.177117696,0.9991542163032215,-66.99079143501592
9.185918976,0.999035025836088,-67.22541312652758
9.194719232,0.9989672960289188,-67.45879579741245
9.203520512,0.9989545067390736,-67.69163464080906
9.212320768,0.9989974094485997,-67.92472694882174
9.221122048,0.9990938559376547,-68.15877502944852
9.229923328,0.9992387145179674,-68.39445254359659
9.238723584,0.9994243546831183,-68.63236386788839
9.247524864,0.9996409399735269,-68.87296250196789
9.256326144,0.9998769161947173,-69.11662616195498
9.2651264,1.0001197747654826,-69.36348107293846
9.27392768,1.0003565497201752,-69.61356760120324
9.282727936,1.000574630351793,-69.86669919763604
9.291529216,1.000762382135917,-70.12258076104264
9.300330496,1.0009097099793645,-70.38070973853642
9.309130752,1.001008953481896,-70.64053336282153
9.317932032,1.0010546188788851,-70.90133947702026
9.326732288,1.0010442310339807,-71.16243718867447
9.335533568,1.0009783621876094,-71.42305209746505
9.344334848,1.0008602559762658,-71.68250037369108
9.353135104,1.0006962346763097,-71.94011991629895
9.361936384,1.000494995355173,-72.1953155773102
9.37073664,1.0002670987490239,-72.44771085161034
9.37953792,1.0000245881378709,-72.69703718116409
9.3883392,0.9997804656921382,-72.94312240886956
9.397139456,0.9995477471305458,-73.1860889018493
9.405940736,0.9993387763712269,-73.42611245697788
9.414740992,0.999164627634075,-73.66366604190884
9.423542272,0.9990348940959881,-73.89915362756945
9.432343552,0.9989563858556674,-74.1333070705053
9.441143808,0.9989336070733148,-74.3667727771689
9.449945088,0.9989674919495971,-74.60038373411949
9.458746368,0.9990564991389467,-74.83480214057393
9.467546624,0.9991960147596896,-75.07077035733877
9.476347904,0.9993784107896173,-75.30890623597631
9.48514816,0.9995943645399765,-75.54974626662761
9.49394944,0.9998320766091,-75.79361264842356
9.50275072,1.0000791556515536,-76.04074508030915
9.511550976,1.0003223403502017,-76.29117291128074
9.520352256,1.0005486268514039,-76.54476510556503
9.529152512,1.0007460223926148,-76.80119508786652
