freq,mag,phase
6.0,1.001146332228383,13.511846400034974
6.011428352,1.0009974683558789,13.170701556875354
6.022857216,1.0007993858685502,12.83165238911753
6.034285568,1.000561534645062,12.495278703316513
6.045714432,1.000295621681459,12.162126269073275
6.057142784,1.0000147808036053,11.832343185394688
6.068571648,0.9997325955422213,11.506101510061963
6.08,0.9994630596420144,11.183341120910613
6.091428352,0.9992193565303263,10.863822669626924
6.102857216,0.9990137245730446,10.54711237582361
6.114285568,0.9988560646500516,10.232684839916844
6.125714432,0.9987543755754461,9.919829231399921
6.137142784,0.9987136057629191,9.607842020846547
6.148571648,0.9987359463844777,9.295914722593729
6.16,0.9988202477377504,8.983293957861488
6.171428352,0.9989625561629484,8.669102079541297
6.182857216,0.9991557984673091,8.352726639164326
6.194285568,0.9993905301174143,8.033607121167895
6.205714432,0.9996552285817406,7.711135429040522
6.217142784,0.9999369198807831,7.3851566741959225
6.228571648,1.0002218755380503,7.055502364403336
6.24,1.0004959437704988,6.72223476636586
6.251428352,1.0007456673904165,6.38551201018578
6.262857216,1.0009589653759523,6.045792622249027
6.274285568,1.0011249526554675,5.70358749976188
6.285714432,1.0012359191667728,5.359486236174315
6.297142784,1.001286113465495,5.014377483798131
6.308571648,1.0012729556217972,4.668950981260013
6.32,1.0011971734185383,4.323957217533233
6.331428352,1.001062273836814,3.9802487415263745
6.342857216,1.0008749795694254,3.6385258266121885
6.354285568,1.000644334301389,3.2993779870597972
6.365714432,1.0003815336774402,2.963360011826837
6.377142784,1.000099419036703,2.6307035184047827
6.388571648,0.9998118162868254,2.3016622928370722
6.4,0.9995329276178426,1.976103878125478
6.411428352,0.9992765683689288,1.6539709192712362
6.422857216,0.9990551084567353,1.3348108941726313
6.434285568,0.9988797675348758,1.018099801779356
6.445714432,0.9987590443245871,0.703262291703121
6.457142784,0.9986990258909416,0.3895576170733687
6.468571648,0.9987028108814563,0.07609688859176454
6.48,0.9987702006399598,-0.23785622178485843
6.491428352,0.9988978453640193,-0.5531212269723121
6.502857216,0.9990797700402494,-0.8704054406739068
6.514285568,0.9993068228451469,-1.1904067576503163
6.525714432,0.9995680487774673,-1.513566273458119
6.537142784,0.9998505050369132,-1.8402817858482676
6.548571648,1.000140435840582,-2.1707342054455463
6.56,1.0004235100603567,-2.504875924024815
6.571428352,1.0006859745124126,-2.8425934304683427
6.582857216,1.0009147885622793,-3.183517894393409
6.594285568,1.0010986990437432,-3.5271549206164265
6.605714432,1.0012286667322845,-3.8728511091089954
6.617142784,1.001298403359282,-4.219907822419565
6.628571648,1.0013042753673562,-4.567486862298442
6.64,1.0012459298932173,-4.914875386267848
6.651428352,1.0011262404563925,-5.261182670654571
6.662857216,1.0009507957371002,-5.605648432386036
6.674285568,1.000728442027689,-5.947697755004374
6.685714432,1.0004697791951462,-6.286754358106446
6.697142784,1.0001874271656057,-6.622424349746419
6.708571648,0.9998953919434125,-6.95448577502288
6.72,0.9996077514667395,-7.2829285864982625
6.731428352,0.9993389645780592,-7.607884791690022
6.742857216,0.9991020876583178,-7.929681324592374
6.754285568,0.9989087411754438,-8.248767203045514
6.765714432,0.9987686985483667,-8.56581240046067
6.777142784,0.9986888593588895,-8.881494505499731
6.788571648,0.998673123861367,-9.196607498921194
6.8,0.998722428070481,-9.511997154498223
6.811428352,0.9988343852607785,-9.828458207272357
6.822857216,0.9990037573682363,-10.146839383587679
6.834285568,0.9992220186836037,-10.467733764944484
6.845714432,0.9994784790749401,-10.791749083627568
6.857142784,0.9997605817570075,-11.119294089247656
6.868571648,1.0000547138120166,-11.45054654574407
6.88,1.000346154610733,-11.785624266423374
6.891428352,1.0006207864343462,-12.12441873116642
6.902857216,1.0008650313852925,-12.466562803712668
6.914285568,1.0010668815470578,-12.811648822000258
6.925714432,1.0012164701639281,-13.159043765067521
6.937142784,1.0013062610831829,-13.508019812469772
6.948571648,1.0013318616156242,-13.857866687465211
6.96,1.0012921300474198,-14.207672912398923
6.971428352,1.0011886833697525,-14.556669491904676
6.982857216,1.0010265393106261,-14.904040906180356
6.994285568,1.000813657030777,-15.249111852201995
7.005714432,1.0005602577122752,-15.591287420671371
7.017142784,1.0002788947123609,-15.93017740312964
7.028571648,0.9999831967683054,-16.265384264403696
7.04,0.9996875743899355,-16.596934443869383
7.051428352,0.9994069195250529,-16.92487456882958
7.062857216,0.999154640036909,-17.249481872228703
7.074285568,0.9989434067260999,-17.57116627143288
7.085714432,0.9987836311110467,-17.890557176538714
7.097142784,0.9986832634097278,-18.208333293445726
7.108571648,0.9986471390819689,-18.52530451177466
7.12,0.9986774315151379,-18.842291639802966
7.131428352,0.9987726663231856,-19.160164609334927
7.142857216,0.9989279441935279,-19.47972610950882
7.154285568,0.9991359747837566,-19.80164410690457
7.165714432,0.9993864962655742,-20.12660318041638
7.177142784,0.9996673643343124,-20.455005703093963
7.188571648,0.999964406352185,-20.78721518685647
7.2,1.0002636298444392,-21.123227305843166
7.211428352,1.0005498688710854,-21.463107779367874
7.222857216,1.0008093166746042,-21.806571868078294
7.234285568,1.0010291528193054,-22.153138362044682
7.245714432,1.0011985587611592,-22.502230803278465
7.257142784,1.001309172204402,-22.853261527997613
7.268571648,1.0013556154401568,-23.205318737482347
7.28,1.0013352854851632,-23.55768610282826
7.291428352,1.0012493570897434,-23.909414922152717
7.302857216,1.001101792085697,-24.25978790961305
7.314285568,1.000899692932946,-24.608022425012717
7.325714432,1.0006529097824066,-24.95346225026637
7.337142784,1.0003736900567757,-25.295672798330354
7.348571648,1.0000753805982405,-25.63423577520174
7.36,0.999772872296387,-25.969039571558408
7.371428352,0.9994806437797459,-26.30013173422978
7.382857216,0.999213354392334,-26.62774787378103
7.394285568,0.9989840934237264,-26.95223946324637
7.405714432,0.9988042436776472,-27.274159688858628
7.417142784,0.9986826542022844,-27.594246185186357
7.428571648,0.9986254666278165,-27.91327263303579
7.44,0.9986355169033801,-28.232023408466528
7.451428352,0.9987125290739136,-28.5514114850137
7.462857216,0.9988526259870545,-28.87228384668038
7.474285568,0.9990491068649633,-29.195334653934918
7.485714432,0.9992923989861545,-29.52131335766568
7.497142784,0.999570514829847,-29.850694347574926
7.508571648,0.999869925370397,-30.183808124879167
7.52,1.0001757887554286,-30.520927610166495
7.531428352,1.000473182088255,-30.861959489807653
7.542857216,1.0007474671307022,-31.206689544470777
7.554285568,1.0009853404709759,-31.554763477567924
7.565714432,1.0011749583896308,-31.90569780037228
7.577142784,1.001306954158024,-32.25875322478314
7.588571648,1.001374830133818,-32.61314937658624
7.6,1.0013753783530928,-32.96811149308027
7.611428352,1.0013081493817204,-33.322712285521476
7.622857216,1.0011764743421523,-33.676139574602125
7.634285568,1.000986778628843,-34.027631291006855
7.645714432,1.0007479562010624,-34.376486854496534
7.657142784,1.0004720969339698,-34.722143155619776
7.668571648,1.0001722163110398,-35.06423852742577
7.68,0.9998634350513738,-35.40249692139919
7.691428352,0.9995605868901408,-35.736968774627016
7.702857216,0.9992786209941146,-36.067777645359705
7.714285568,0.999031337629695,-36.39524382744281
7.725714432,0.9988311755408096,-36.7199600813817
7.737142784,0.9986878063165879,-37.042518393152044
7.748571648,0.9986085844338467,-37.36374011235858
7.76,0.9985974543959413,-37.68443918743199
7.771428352,0.9986548092619364,-38.00551172422764
7.782857216,0.9987783923325837,-38.327810804636115
7.794285568,0.9989618078469794,-38.65216544032544
7.805714432,0.999196287478939,-38.97925206025719
7.817142784,0.9994704219947397,-39.30968734302861
7.828571648,0.9997707620379149,-39.643856766065504
7.84,1.0000823877690563,-39.98202412784324
7.851428352,1.0003902505315168,-40.32423973167138
7.862857216,1.0006792782074971,-40.67033535536899
7.874285568,1.0009349385971889,-41.0200223021642
7.885714432,1.0011451412578303,-41.372709721537205
7.897142784,1.0012991349029292,-41.727881875179634
7.908571648,1.0013895360582135,-42.08465222758322
7.92,1.001411766926618,-42.44226082016121
7.931428352,1.0013646517897843,-42.79977517763489
7.942857216,1.0012503825237777,-43.1564212906253
7.954285568,1.001074313001524,-43.51129157047747
7.965714432,1.0008451971695194,-43.86367172518845
7.977142784,1.0005741747247872,-44.21298273472082
7.988571648,1.0002741022466857,-44.55871345227553
8.0,0.999959928957624,-44.90066408352967
8.011428352,0.9996470768422906,-45.23865386256767
8.022857216,0.9993508022061989,-45.57286674073247
8.034285568,0.9990856381778259,-45.90358264638287
8.045714432,0.9988647464748859,-46.23122617652828
8.057142784,0.9986991597372672,-46.556484410154255
8.068571648,0.9985968597572257,-46.880095001223
8.08,0.9985632775650577,-47.20293238566122
8.091428352,0.9985998461310683,-47.52585336835414
8.102857216,0.998705221587925,-47.84975788891561
8.114285568,0.9988741449053709,-48.17548306911495
8.125714432,0.9990983796623047,-48.50380361705855
8.137142784,0.9993670997852915,-48.8353576589319
8.148571648,0.9996668618484227,-49.17068033541555
8.16,0.9999835001350211,-49.5099626120705
8.171428352,1.0003009677744268,-49.85339041984036
8.182857216,1.0006039719401347,-50.200892487824056
8.194285568,1.0008775296533532,-50.55216126202239
8.205714432,1.0011083770333722,-50.90673383810472
8.217142784,1.0012851542482333,-51.26398034425166
8.228571648,1.0013988153761562,-51.62320649612139
8.24,1.0014440632498918,-51.983507546295
8.251428352,1.0014184251544886,-52.34406588741634
8.262857216,1.0013230225955507,-52.703966629646395
8.274285568,1.001162490190085,-53.06233411714602
8.285714432,1.000944422692991,-53.41839791213785
8.297142784,1.0006796055757954,-53.771485426621354
8.308571648,1.000380704177865,-54.12108972302254
8.32,1.0000624248632242,-54.46687309389977
8.331428352,0.9997403133189815,-54.80861559675344
8.342857216,0.999430210215989,-55.14645619957578
8.354285568,0.9991473044070953,-55.480553952090716
8.365714432,0.9989056880543791,-55.81139010372611
8.377142784,0.9987168622870053,-56.139550442693405
8.388571648,0.9985908174057596,-56.4658018810006
8.4,0.9985335328866951,-56.79091609759198
8.411428352,0.9985479342161901,-57.11586206514487
8.422857216,0.9986335650090484,-57.441486710617326
8.434285568,0.9987862267704761,-57.768771992351404
8.445714432,0.9989984357608165,-58.09845573205668
8.457142784,0.9992600883700575,-58.43122526276758
8.468571648,0.9995581975506767,-58.767685581353106
8.48,0.999878281825248,-59.10817480948041
8.491428352,1.000204675632267,-59.45290581771828
8.502857216,1.0005211933900153,-59.801815854149815
8.514285568,1.000812557025311,-60.154685446098426
8.525714432,1.0010643250907194,-60.511128559129666
8.537142784,1.0012641971922882,-60.87055258233232
8.548571648,1.0014022049042155,-61.23222112019049
8.56,1.001471658323048,-61.59532626060991
8.571428352,1.001468914593731,-61.95897260855228
8.582857216,1.0013941098387396,-62.32220990238615
8.594285568,1.0012505823291082,-62.68418946625926
8.605714432,1.0010454746487247,-63.044066147793
8.617143296,1.0007883941506137,-63.40109898285608
8.628571136,1.0004922091980344,-63.75475449306495
8.64,1.0001711317264164,-64.10450381866146
8.651428864,0.9998407992006377,-64.45025584742302
8.662856704,0.9995174053654559,-64.79189721783972
8.674285568,0.9992169103299597,-65.12968170167493
8.685714432,0.998954138090611,-65.46392492081317
8.697143296,0.998742106279382,-65.79519683469735
8.708571136,0.9985911787000946,-66.12425756671891
8.72,0.9985089476533381,-66.45191870795514
8.731428864,0.9984996049007716,-66.77904846161385
8.742856704,0.9985638361545349,-67.1066126973907
8.754285568,0.9986983735849803,-67.43553511814201
8.765714432,0.9988970247144277,-67.76665598288459
8.777143296,0.9991498146800891,-68.10077136405204
8.788571136,0.9994445626374733,-68.43848276301863
8.8,0.9997668990673164,-68.78021312680168
8.811428864,1.0001010266977837,-69.12624649113499
8.822856704,1.000430518137287,-69.47660794443061
8.834285568,1.0007393321094669,-69.83112306714143
8.845714432,1.0010121435656205,-70.18945829140299
8.857143296,1.0012357052047742,-70.55106844113753
8.868571136,1.0013990095958092,-70.91524971955238
8.88,1.0014939202021134,-71.28118217116474
8.891428864,1.0015155871122687,-71.64796919733253
8.902856704,1.0014629784168312,-72.0146827441217
8.914285568,1.0013384691199718,-72.3803804049291
8.925714432,1.0011480583375523,-72.7441717712808
8.937143296,1.0009007550849225,-73.1053565660123
8.948571136,1.000608695804948,-73.46316604137145
8.96,1.0002860477687312,-73.81717643588796
8.971428864,0.9999486187503078,-74.1670992643331
8.982856704,0.999612791350672,-74.51282459945165
8.994285568,0.9992950998839568,-74.85448002665832
9.005714432,0.9990111707317397,-75.19235502277763
9.017143296,0.9987750399895257,-75.52700585080369
9.028571136,0.9985984380735079,-75.85911705871051
9.04,0.9984899727318348,-76.18946770638011
9.051428864,0.998455333228975,-76.51897216170003
9.062856704,0.9984963119818023,-76.84864082239885
9.074285568,0.9986110014176842,-77.17937937859732
9.085714432,0.9987938938278441,-77.5120823458717
9.097143296,0.9990361143477423,-77.84762509218493
9.108571136,0.9993258259239816,-78.18664043154907
9.12,0.999648896679553,-78.52967982524864
9.131428864,0.9999897437682306,-78.8770669210228
9.142856704,1.0003313367866078,-79.22888256652003
9.154285568,1.000657177761132,-79.58508455710185
9.165714432,1.0009513075613468,-79.94532572675473
9.177143296,1.00119909284541,-80.30911750561273
9.188571136,1.001388493251777,-80.67583903319685
9.2,1.0015100705034783,-81.0446539819976
9.211428864,1.001557839584415,-81.41465795933463
9.222856704,1.001529291969597,-81.78489086221762
9.234285568,1.0014256256641345,-82.15441843185751
9.245714432,1.00125190223542,-82.52231420060883
9.257143296,1.0010162881280125,-82.88772754672766
9.268571136,1.000730283492356,-83.24993604125098
9.28,1.000407731484664,-83.60839660269906
9.291428864,1.0000643029029312,-83.96272306393374
9.302856704,0.9997168338652948,-84.31274089413115
9.314285568,0.9993823934560251,-84.65850910856007
9.325714432,0.9990772498815261,-85.00029963236078
9.337143296,0.9988166022459948,-85.33853269787534
9.348571136,0.9986133291614374,-85.67392626827919
9.36,0.9984774949386814,-86.00724509164932
9.371428864,0.9984158336125541,-86.33935966434785
9.382856704,0.9984317783467317,-86.6712744659147
9.394285568,0.9985244217150806,-87.00397325853004
9.405714432,0.9986895410598643,-87.3384023525397
9.417143296,0.9989190614699851,-87.67545474650053
9.428571136,0.999201937528206,-88.01586312390529
9.44,0.9995242252373575,-88.36026449497673
9.451428864,0.9998703535284421,-88.70904114110449
9.462856704,1.0002232216552565,-89.06235322700532
9.474285568,1.0005657318380705,-89.42023002188638
9.485714432,1.0008809029692427,-89.78240058691286
9.497143296,1.00115360903942,-90.14841125194803
9.508571136,1.0013699369453062,-90.51767577051878
9.52,1.0015195860691257,-90.889412086871
9.531428864,1.0015950435417524,-91.26267396593013
9.542856704,1.0015925369370549,-91.63655123611571
9.554285568,1.0015119415778908,-92.00998922833739
9.565714432,1.0013570373633398,-92.38208658727936
9.577143296,1.0011351723415354,-92.75193538555794
9.588571136,1.0008571251639062,-93.11871677106254
9.6,1.0005363400221352,-93.48181647010551
9.611428864,1.0001884642559105,-93.84077689257505
9.622856704,0.999830322583553,-94.19534924557159
9.634285568,0.9994795056645351,-94.54549405527787
9.645714432,0.9991532992884827,-94.89142443201787
9.657143296,0.99886771981853,-95.23355408940705
9.668571136,0.9986368490960333,-95.57246912664993
9.68,0.9984721056502823,-95.90894369094259
9.691428864,0.9983819186435253,-96.24388118475638
9.702856704,0.9983706294728141,-96.57824815162218
9.714285568,0.9984391808686085,-96.91307924051699
9.725714432,0.9985841868862382,-97.24937183407067
9.737143296,0.9987989231660778,-97.58805983255168
9.748571136,0.9990727142161784,-97.92997636008094
9.76,0.9993924713409457,-98.27577281152452
9.771428864,0.999742341525712,-98.62596179780056
9.782856704,1.0001054402605596,-98.9807890166906
9.794285568,1.000463930752553,-99.34035630627203
9.805714432,1.0008002554486168,-99.70443687278363
9.817143296,1.0010979180118418,-100.07271149300327
9.828571136,1.0013424175565944,-100.44453137101533
9.84,1.0015215613182082,-100.81917771348189
9.851428864,1.0016265186798947,-101.19575607680521
9.862856704,1.0016519691043897,-101.57331352031736
9.874285568,1.0015965346896298,-101.95081132236926
9.885714432,1.0014628698796342,-102.32724980407505
9.897143296,1.0012571317125178,-102.70165877377913
9.908571136,1.0009893095571256,-103.07322591409994
9.92,1.000672193730293,-103.4411650313494
9.931428864,1.0003213100917339,-103.805003625953
9.942856704,0.9999537153019661,-104.16437397836238
9.954285568,0.9995873821573253,-104.51917291327794
9.965714432,0.9992401211031752,-104.86953494620651
9.977143296,0.9989291326398024,-105.21581535613078
9.988571136,0.9986697432852903,-105.55852390574539
10.0,0.9984749287688395,-105.89844109309611
10.011428864,0.9983541157626994,-106.23640809416676
10.022856704,0.9983136690921907,-106.5734570467731
10.034285568,0.998355721629091,-106.91060029136389
10.045714432,0.9984782506437153,-107.24888749048816
10.057143296,0.9986756698189558,-107.58932288793113
10.068571136,0.9989381328336837,-107.93280641030084
10.08,0.999253100862184,-108.2800618602807
10.091428864,0.9996052785099907,-108.63171019613219
10.102856704,0.9999772849245688,-108.98808032888057
10.114285568,1.0003510478500974,-109.34933324833847
10.125714432,1.000708361581794,-109.71532612332095
10.137143296,1.0010315932857587,-110.08583172608004
10.148571136,1.0013049035288615,-110.4602270371996
10.16,1.0015149013978997,-110.83783630514374
10.171428864,1.0016511757407782,-111.2177947307696
10.182856704,1.0017068663333153,-111.59908726631325
10.194285568,1.0016792177255267,-111.98073364505173
10.205714432,1.0015692465726092,-112.36163263089459
10.217143296,1.001382050635287,-112.74079951854067
10.228571136,1.0011268274599594,-113.11728061703876
10.24,1.0008156602635945,-113.49031499720908
10.251428864,1.0004635878827033,-113.85926291191335
10.262856704,1.0000878307374086,-114.2237160814081
10.274285568,0.9997066647516437,-114.58347506300036
10.285714432,0.9993386943333339,-114.93854849024801
10.297143296,0.999002075114433,-115.28923662137865
10.308571136,0.9987132756232233,-115.63603728936721
10.32,0.9984866891940353,-115.97965409780943
10.331428864,0.9983335193037115,-116.32093607910814
10.342856704,0.9982615459567945,-116.66085584238039
10.354285568,0.9982745342537126,-117.0005093963616
10.365714432,0.9983720194534506,-117.34095749794135
10.377143296,0.9985493042271254,-117.68327060006213
10.388571136,0.9987980209262671,-118.02839870435706
10.4,0.9991060550047509,-118.37718992358806
10.411428864,0.9994584466421439,-118.73031878432892
10.422856704,0.9998380034608433,-119.0882306640815
10.434285568,1.000226241372905,-119.45117151411532
10.445714432,1.0006040994657586,-119.81909568558135
10.457143296,1.0009532144636921,-120.1917903044538
10.468571136,1.001256310468512,-120.56875546882401
10.48,1.001498691218233,-120.9493427828572
10.491428864,1.0016682177010146,-121.33268615198331
10.502856704,1.001756524933464,-121.7178290462839
10.514285568,1.0017590554068865,-122.1036806718385
10.525714432,1.0016756486231284,-122.48918891624797
10.537143296,1.0015098984849988,-122.87326563197884
10.548571136,1.0012698954830856,-123.25490040959549
10.56,1.0009669559407677,-123.63323408520516
10.571428864,1.0006157562477687,-124.00756717328544
10.582856704,1.0002333847158111,-124.37737412228138
10.594285568,0.9998383812399078,-124.74235444900687
10.605714432,0.9994501066928315,-125.10248711898801
10.617143296,0.9990874683848409,-125.45790868455929
10.628571136,0.9987683636583223,-125.8091150059204
