freq,mag,phase
6.0,1.0002835253842324,-23.575328396976413
6.00862976,1.0001410742569612,-23.893644112644395
6.017260032,0.9999909990275808,-24.210132557136912
6.025889792,0.9998412070223969,-24.52469432888569
6.034520064,0.99969953838638,-24.837403015534466
6.043149824,0.9995734842429342,-25.14842858886649
6.051780096,0.9994701290634883,-25.457993708225494
6.060409856,0.9993949568681498,-25.766512609336246
6.069040128,0.9993517924472481,-26.07425739415245
6.077669888,0.9993432019241403,-26.38183754194256
6.086299648,0.9993696273745292,-26.689560051608193
6.09492992,0.9994297412694866,-26.99795522161054
6.10355968,0.9995204846923753,-27.307421714748063
6.112189952,0.9996368173775447,-27.6184297139033
6.120819712,0.9997727619179116,-27.931129920898304
6.129449984,0.9999209722451072,-28.245902935497817
6.138079744,1.0000734999177507,-28.56273047547696
6.146710016,1.0002223919150874,-28.881618397586735
6.155339776,1.0003594649509249,-29.202586772956863
6.163970048,1.0004775837043394,-29.525307432480407
6.172599808,1.000570197901688,-29.84957449408254
6.181229568,1.0006324723625573,-30.174920148471564
6.18985984,1.0006611633815763,-30.500975960958307
6.1984896,1.0006543591792467,-30.827327447530596
6.207119872,1.0006126745596517,-31.15347543369649
6.215749632,1.000538122789521,-31.478919705642017
6.224379904,1.0004346529891452,-31.803257832952493
6.233009664,1.0003076191959581,-32.1261865711833
6.241639936,1.000164060985779,-32.44741830467881
6.250269696,1.0000112895858948,-32.76674707348467
6.258899456,0.9998576032234936,-33.08416987170863
6.267529728,0.9997111035986584,-33.39964332290849
6.276159488,0.999579995859856,-33.7134375640079
6.28478976,0.9994710200905618,-34.025642267129726
6.29341952,0.9993897822874701,-34.33668246764622
6.302049792,0.9993411792530751,-34.646981822979384
6.310679552,0.9993275381182338,-34.95694242272417
6.319309824,0.9993498685615002,-35.26702738558216
6.327939584,0.9994068388138028,-35.5777430426915
6.336569344,0.9994955203082425,-35.88953662149307
6.345199616,0.9996113289506562,-36.202778942594676
6.353829376,0.9997480071886817,-36.51782588970871
6.362459648,0.9998982869038614,-36.83485589203117
6.371089408,1.00005415947961,-37.15398924036167
6.37971968,1.0002073540988408,-37.47532745766236
6.38834944,1.000349619689738,-37.79872492161311
6.396979712,1.0004733113706077,-38.12399593607044
6.405609472,1.0005720436692955,-38.45080899702752
6.414239232,1.0006403040343994,-38.77886981807809
6.422869504,1.0006743718353,-39.10772375842538
6.431499264,1.0006724684266988,-39.436914078967
6.440129536,1.0006345788157855,-39.765929068824356
6.448759296,1.0005628285117458,-40.09429527840784
6.457389568,1.000460698061962,-40.42163536627956
6.466019328,1.0003336819675683,-40.74755447296016
6.4746496,1.0001887177252518,-41.07175553541335
6.48327936,1.0000333539621802,-41.394072426746206
6.491909632,0.9998758656572995,-41.714379711751675
6.500539392,0.9997245266333193,-42.03276836297673
6.509169152,0.9995877231327283,-42.34927760366489
6.517799424,0.9994725716132838,-42.66426409466701
6.526429184,0.9993853581514606,-42.97794055794661
6.535059456,0.9993307179756783,-43.29076993656282
6.543689216,0.9993116013199407,-43.60323578341306
6.552319488,0.9993293634056668,-43.915731393647384
6.560949248,0.9993828169585842,-44.22882742787751
6.56957952,0.9994692071861618,-44.54294275392006
6.57820928,0.9995841346228027,-44.85847746251238
6.58683904,0.9997212928992237,-45.17579141403487
6.595469312,0.9998736280228744,-45.495192337551146
6.604099072,1.0000327926337533,-45.816708252552054
6.612729344,1.0001904327114695,-46.140428904801446
6.621359104,1.000338086290653,-46.46631051140473
6.629989376,1.0004679005205828,-46.79414829163651
6.638619136,1.0005729687972207,-47.12364004182261
6.647249408,1.0006475699606874,-47.4544370771371
6.655879168,1.0006875403272237,-47.78606619060148
6.664508928,1.0006909935148183,-48.11813229977492
6.6731392,1.0006575248515592,-48.45008514891895
6.68176896,1.0005887851472224,-48.781489789521395
6.690399232,1.0004884176464095,-49.111858790724575
6.699028992,1.0003617639374787,-49.44082417352338
6.707659264,1.0002156500691595,-49.76808973934372
6.716289024,1.0000575936290466,-50.09343768078245
6.724919296,0.9998961838655853,-50.41675235538571
6.733549056,0.9997397771278616,-50.73806536827157
6.742179328,0.9995970183712958,-51.05745386613815
6.750809088,0.9994754800965079,-51.375178005046585
6.759438848,0.9993816203550252,-51.69157673764819
6.76806912,0.9993205295535665,-52.007052306122816
6.77669888,0.9992957382968145,-52.32201077503596
6.785329152,0.999308138256589,-52.637002044698036
6.793958912,0.9993575084463273,-52.95246585913413
6.802589184,0.9994414214912045,-53.26891072954782
6.811218944,0.9995550923175999,-53.58678215532918
6.819849216,0.9996927647110769,-53.906453749156384
6.828478976,0.9998469189691763,-54.22817240237718
6.837108736,1.000009491600291,-54.55204661307684
6.845739008,1.0001717704767306,-54.878204918311496
6.854368768,1.0003250201690086,-55.206584754956914
6.86299904,1.0004612384218103,-55.53702446068629
6.8716288,1.0005729358927717,-55.86914861701285
6.880259072,1.00065438482827,-56.20269881607287
6.888888832,1.0007008419898418,-56.537212722074585
6.897519104,1.0007100858257127,-56.87216529986673
6.906148864,1.000681382994903,-57.20712233201436
6.914778624,1.0006162367693574,-57.541585219265194
6.923408896,1.0005178775154093,-57.87506246625007
6.932038656,1.0003918556897686,-58.20716767436571
6.940668928,1.0002446459966314,-58.5375486039808
6.949298688,1.000083979897333,-58.86598808071987
6.95792896,0.9999184652156902,-59.19235871696054
6.96655872,0.9997569725585915,-59.516638933132874
6.975188992,0.9996080739060406,-59.83893961428874
6.983818752,0.9994796144969567,-60.159520058815374
6.992448512,0.999378698252861,-60.4786804760569
7.001078784,0.9993108617506886,-60.796738137237895
7.009708544,0.9992794771087414,-61.114283998630704
7.018338816,0.9992863980529166,-61.43176049668958
7.026968576,0.999331392648789,-61.74962521100481
7.035598848,0.9994122092388275,-62.06847192641234
7.044228608,0.9995243487312421,-62.38870486664956
7.05285888,0.9996619701114298,-62.71067765506821
7.06148864,0.9998180140418613,-63.03468651373538
7.070118912,0.9999838154377308,-63.36095257454452
7.078748672,1.0001507121334487,-63.6895419212854
7.087378432,1.0003098562360826,-64.02042560838532
7.096008704,1.0004528750826973,-64.35340329147479
7.104638464,1.0005717163873165,-64.68821427948413
7.113268736,1.0006603449741036,-65.02453434106282
7.121898496,1.0007139291196814,-65.36192187926117
7.130528768,1.0007294404279004,-65.69983107672947
7.139158528,1.0007058934880884,-66.03786446125919
7.1477888,1.0006448311239236,-66.37540873385694
7.15641856,1.0005491421611195,-66.71201434255323
7.16504832,1.0004239670169572,-67.04726449129605
7.173678592,1.00027592831335,-67.38082628653208
7.182308352,1.0001127526422895,-67.71239945000342
7.190938624,0.9999431179026218,-68.0418669701165
7.199568384,0.9997762128953164,-68.36919517399882
7.208198656,0.9996209157771401,-68.69448524131286
7.216828416,0.9994854817519896,-69.01790703125985
7.225458688,0.9993771103507397,-69.33984904987351
7.234088448,0.9993015689329888,-69.66060208702375
7.242718208,0.9992631824449767,-69.98073519860195
7.25134848,0.9992640774951042,-70.30067315524887
7.25997824,0.9993040821437892,-70.62100366972834
7.268608512,0.9993812540356247,-70.94220784179298
7.277238272,0.9994915478932151,-71.26475318250128
7.285868544,0.9996289794977622,-71.58905706302046
7.294498304,0.9997865722875479,-71.91539676052926
7.303128576,0.9999556246359573,-72.24403009813628
7.311758336,1.0001275246931376,-72.57500228500662
7.320388096,1.0002928052256834,-72.9083601176922
7.329018368,1.000442587830872,-73.24390229164506
7.337648128,1.0005691078682355,-73.58140162151821
7.3462784,1.0006654481546955,-73.92046773841436
7.35490816,1.0007265162579781,-74.26070651892165
7.363538432,1.0007489281888153,-74.60159826754025
7.372168192,1.0007313244100478,-74.94267541845468
7.380798464,1.0006749194878284,-75.28332371710803
7.389428224,1.00058209343095,-75.62307499034415
7.398058496,1.0004582505349762,-75.96154851553774
7.406688256,1.0003094314724585,-76.29831152664836
7.415318016,1.0001439429422747,-76.6330408273683
7.423948288,0.9999704859264819,-76.96567915104345
7.432578048,0.9997979576982722,-77.29608549984358
7.44120832,0.9996358371074728,-77.62438652010249
7.44983808,0.9994929346329787,-77.95070999146341
7.458468352,0.9993764656983607,-78.27544293423537
7.467098112,0.9992929196986123,-78.59892052472794
7.475728384,0.9992471397396132,-78.92161843993667
7.484358144,0.9992411818047958,-79.24408149645267
7.492987904,0.9992756706810736,-79.5668187059119
7.501618176,0.9993488439300665,-79.8903350112671
7.510247936,0.9994567475553389,-80.21523068400056
7.518878208,0.9995938304941665,-80.54176756458078
7.527507968,0.9997528439136398,-80.87040807200147
7.53613824,0.9999251785229841,-81.20135088405296
7.544768,1.0001017494134345,-81.534721910392
7.553398272,1.0002731177022,-81.87051120897559
7.562028032,1.000430436984245,-82.20860091513248
7.570657792,1.000564918825173,-82.54870935800326
7.579288064,1.0006695830102372,-82.89053933366695
7.587917824,1.000738738635333,-83.23361349195822
7.596548096,1.0007686231508717,-83.57747642679251
7.605177856,1.000757551806601,-83.92158253953363
7.613808128,1.0007060725589791,-84.26538032835256
7.622437888,1.0006169710698907,-84.60833903172336
7.63106816,1.0004946570062077,-84.95000077131104
7.63969792,1.0003456663602392,-85.28998908517451
7.648328192,1.0001779489238491,-85.6279461900397
7.656957952,1.0000003397135575,-85.96372860953572
7.665587712,0.9998222549181269,-86.29724729892405
7.674217984,0.9996532011839787,-86.62856841332611
7.682847744,0.99950222608852,-86.95782171892775
7.691478016,0.9993774201163798,-87.28534041980843
7.700107776,0.9992854480834836,-87.61154682693517
7.708738048,0.9992313726256831,-87.93683296946789
7.717367808,0.9992181138746921,-88.26176857567124
7.72599808,0.9992465123454695,-88.58688739776902
7.73462784,0.9993148752487941,-88.91274948006854
7.7432576,0.9994199610584925,-89.23987415537079
7.751887872,0.9995561939108741,-89.56868027054652
7.760517632,0.999716268534762,-89.89955080513185
7.769147904,0.9998916642865888,-90.23276303190708
7.777777664,1.000073182916189,-90.56846336624683
7.786407936,1.0002512239120898,-90.90661715546355
7.795037696,1.0004160551525283,-91.24718998883066
7.803667968,1.000559001410179,-91.58990113430421
7.812297728,1.0006725355505457,-91.93440064853554
7.820927488,1.000750338159509,-92.28032739366692
7.82955776,1.0007883127076125,-92.6270980001262
7.83818752,1.000784457004971,-92.974224262458
7.846817792,1.0007387889193997,-93.32113013629787
7.855447552,1.0006536314364831,-93.6672848923178
7.864077824,1.0005334254478022,-94.01217218786965
7.872707584,1.0003845650649708,-94.35537948090551
7.881337856,1.000214805788036,-94.69655836311688
7.889967616,1.0000332297519452,-95.03553052922247
7.898597376,0.9998493434924437,-95.37215381041571
7.907227648,0.9996730984665944,-95.70652635099297
7.915857408,0.9995137875844431,-96.0387098013848
7.92448768,0.9993799544035927,-96.36906163262624
7.93311744,0.9992788598076521,-96.69793204796893
7.941747712,0.9992159709802464,-97.02579294789302
7.950377472,0.9991946320744038,-97.35317406378847
7.959007744,0.9992160821270113,-97.68063591458869
7.967637504,0.9992793584427079,-98.00877627208537
7.976267776,0.9993810545988756,-98.33810768706508
7.984897536,0.9995159134709509,-98.66907330505936
7.993527296,0.9996768366856355,-99.00210932197203
8.002157568,0.999855172999593,-99.33753901901366
8.010787328,1.0000416032148813,-99.67544527682378
8.0194176,1.0002260685438535,-100.0159447588618
8.02804736,1.0003989352653286,-100.35890410023956
8.036677632,1.000550833365402,-100.70413366288214
8.045307392,1.0006736819376332,-101.0512885046147
8.053937664,1.0007608440043958,-101.39996968353209
8.062567424,1.0008077560469946,-101.74963620516749
8.071197184,1.000811813421104,-102.09973858953984
8.079827456,1.000772510640248,-102.44973763381587
8.088457216,1.0006919248731023,-102.79903632024507
8.097087488,1.0005744083681207,-103.14711700370974
8.105717248,1.0004260648545809,-103.4935624392479
8.11434752,1.0002545913976217,-103.83795974802028
8.12297728,1.0000691286053107,-104.18011290060916
8.131607552,0.9998795027201335,-104.51986023069281
8.140237312,0.9996957689407516,-104.85720972375725
8.148867072,0.9995278493371588,-105.19233450766986
8.157497344,0.9993846245523365,-105.5254828846454
8.166127104,0.9992736703766689,-105.85700659735556
8.174757376,0.999201290970243,-106.18742047689602
8.183387136,0.9991712102690837,-106.5172197601832
8.192017408,0.9991850932695361,-106.84699657673174
8.200647168,0.9992424126985158,-107.17730521552328
8.20927744,0.9993402452447337,-107.50875686870481
8.2179072,0.9994732288032228,-107.84185438124626
8.226537472,0.9996345379726241,-108.17697889438416
8.235167232,0.9998157307079167,-108.51447357419354
8.243796992,1.0000069878845192,-108.85453147371611
8.252427264,1.0001982934105325,-109.19726001495371
8.261057024,1.0003793852488883,-109.54250791119196
8.269687296,1.000540609505302,-109.89019402294065
8.278317056,1.0006733703812536,-110.23991750005992
8.286947328,1.0007707077611556,-110.59128457452947
8.295577088,1.00082712864426,-110.94373748322919
8.30420736,1.0008396500512582,-111.29679370129206
8.31283712,1.0008075581298437,-111.64981611896869
8.32146688,1.0007323571654572,-112.00220472796221
8.330097152,1.0006181584940765,-112.35347947303507
8.338726912,1.0004705898784942,-112.70313465958905
8.347357184,1.000297720249637,-113.05073565062337
8.355986944,1.000108527803354,-113.39602419211099
8.364617216,0.9999130474347447,-113.73890637903571
8.373246976,0.9997216731121267,-114.07924117552396
8.381877248,0.9995446512476649,-114.41725789961707
8.390507008,0.9993914282274666,-114.7531578970266
8.399136768,0.9992701996883567,-115.08732035715401
8.40776704,0.9991874199352021,-115.42017863004362
8.4163968,0.9991477798018429,-115.75231951933517
8.425027072,0.9991533338878278,-116.08433596939683
8.433656832,0.9992039993323374,-116.41679632182195
8.442287104,0.9992970931780707,-116.75028000119363
8.450916864,0.9994278024252806,-117.08535864153642
8.459547136,0.9995891634252083,-117.42242702942873
8.468176896,0.9997727778533072,-117.76194137220746
8.476806656,0.9999688590468103,-118.10402461050396
8.485436928,1.0001669725574327,-118.44883139694133
8.494066688,1.000356555625403,-118.79631154421365
8.50269696,1.0005276933503182,-119.14628797562713
8.51132672,1.0006710743475749,-119.49847268159112
8.519956992,1.0007790470785496,-119.85239950173806
8.528586752,1.0008458087212249,-120.20759908936078
8.537217024,1.0008677936326376,-120.56349283946909
8.545846784,1.0008436494351192,-120.91947869682147
8.554477056,1.000774608568488,-121.27496319359363
8.563106816,1.0006641370462372,-121.62934283452952
8.571736576,1.00051811937936,-121.98214584200404
8.580366848,1.0003441295002242,-122.33289106736356
8.588996608,1.0001512869840614,-122.68133756409007
8.59762688,0.9999500773854956,-123.02722888373425
8.606257152,0.9997508503661742,-123.37057646145179
8.6148864,0.9995643765945071,-123.7114309342419
8.623516672,0.9994006011115355,-124.05005468130095
8.632146944,0.9992683251798397,-124.38676655905564
8.640776192,0.9991745892462671,-124.7220405047822
8.649406464,0.9991245665683725,-125.05645771000935
8.658036736,0.9991209855916927,-125.39060558828345
8.666667008,0.9991640431421942,-125.72506873346998
8.675296256,0.9992518518516341,-126.06050318211622
8.683926528,0.9993794595889203,-126.39742813086171
8.6925568,0.9995404447915155,-126.73636470060826
8.701187072,0.9997262539944008,-127.0776917725582
8.70981632,0.9999269676120149,-127.4216734432729
8.718446592,1.0001320240702172,-127.76845291319178
8.727076864,1.000330506355092,-128.11800790357583
8.735706112,1.0005118139136804,-128.47015196493783
8.744336384,1.0006663937964035,-128.8246365621544
8.752966656,1.0007857966941052,-129.1810481038937
8.761596928,1.000863813455787,-129.5388540418808
8.770226176,1.0008960560872542,-129.897513202283
8.778856448,1.000880728113361,-130.25637174695785
8.78748672,1.0008185346630143,-130.61483460106626
8.796116992,1.0007127089279089,-130.97226122894745
8.80474624,1.0005686154917293,-131.3281430264691
8.813376512,1.0003940516416714,-131.68200079358357
8.822006784,1.000197958691274,-132.03352137227557
8.830636032,0.9999908810294396,-132.38241642207967
8.839266304,0.9997836964393078,-132.72869719680187
8.847896576,0.9995874344991902,-133.07232808944653
8.856526848,0.9994126212707103,-133.41358094948558
8.865156096,0.9992686069447099,-133.75279366548526
8.873786368,0.9991630357052543,-134.09043719679678
8.88241664,0.9991017668222008,-134.4270025478
8.891045888,0.9990879874489275,-134.7631849083873
8.89967616,0.9991228558299277,-135.09955690771147
8.908306432,0.9992042877459845,-135.43678519037576
8.916936704,0.999328355631245,-135.7754582914686
8.925565952,0.9994883942228298,-136.1160520999686
8.934196224,0.9996759007231872,-136.45909522008893
8.942826496,0.999881161124402,-136.8048014817077
8.951456768,1.0000932374239413,-137.1533696088355
8.960086016,1.000300751822741,-137.50480975166704
8.968716288,1.0004927950734888,-137.85899273022358
8.97734656,1.0006591243676295,-138.21563186138098
8.985975808,1.0007908155622587,-138.57438340817896
8.99460608,1.0008807231904382,-138.9346609410158
9.003236352,1.0009242101492812,-139.29594047176155
9.011866624,1.0009186505589271,-139.6575643133074
9.020495872,1.0008641527738908,-140.01890008694744
9.029126144,1.000763784039645,-140.3793098305098
9.037756416,1.0006224114658686,-140.73820899032918
9.046386688,1.000447635580752,-141.0950912265165
9.055015936,1.0002485551660272,-141.44958259954421
9.063646208,1.0000358280388222,-141.8014511661596
9.07227648,0.9998205085189985,-142.15054034259316
9.080905728,0.9996141143257722,-142.49690720841187
9.089536,0.9994276659088115,-142.84074530649866
9.098166272,0.999271224577287,-143.18237569464378
9.106796544,0.9991530169169968,-143.52223016649364
9.115425792,0.9990795842533872,-143.8608880402555
9.124056064,0.9990548083688576,-144.19896399783977
9.132686336,0.9990803181413775,-144.53709902664977
9.141315584,0.9991546537814606,-144.87597999388194
9.149945856,0.9992742267213314,-145.21621970086233
9.158576128,0.9994326933217069,-145.5583373365649
9.1672064,0.9996215710213844,-145.902883953204
9.175835648,0.9998311718767692,-146.2501280411354
9.18446592,1.000050146314518,-146.6003207263136
9.193096192,1.0002669812927503,-146.95346609060587
9.201726464,1.0004702104246441,-147.3094809179938
9.210355712,1.000648898635169,-147.6681337303057
9.218985984,1.0007935341362892,-148.02901888636407
9.227616256,1.0008964994667537,-148.3916505754656
9.236245504,1.0009520451921208,-148.75540428863593
9.244875776,1.0009571713590373,-149.11965348386397
9.253506048,1.00091146780191,-149.48375886564668
9.26213632,1.0008173048005067,-149.8470026561354
9.270765568,1.0006793508296628,-150.20881233707482
9.27939584,1.000505036644104,-150.5686409607064
9.288026112,1.000303346207155,-150.92606727550034
9.296656384,1.0000849832275072,-151.2807548633737
9.305285632,0.9998614189525619,-151.63262770151408
9.313915904,0.9996446695624789,-151.98164709290873
9.322546176,0.9994460814639935,-152.3279686457004
9.331175424,0.9992764092498662,-152.67189498325277
9.339805696,0.9991447476817276,-153.01388585529077
9.348435968,0.9990581366759288,-153.35449397209834
9.35706624,0.999021340568609,-153.6943304877307
9.365695488,0.9990364660651248,-154.0340706454224
9.37432576,0.9991028263818026,-154.37442319457574
9.382956032,0.9992171018086223,-154.7160538121963
9.39158528,0.9993732313990085,-155.0595193860713
9.400215552,0.9995631165449298,-155.40535851378013
9.408845824,0.9997766806612544,-155.75394521523503
9.417476096,1.0000025462908315,-156.10552906403808
9.426105344,1.0002289190232172,-156.46019845355445
9.434735616,1.0004437482661541,-156.81786584292843
9.443365888,1.0006354683442766,-157.1783039177037
