freq,mag,phase
6.0,1.000065591767388,-113.42220451013952
6.004804608,1.0000720440048982,-113.66303220402727
6.009609728,1.0000766503420542,-113.9039932018103
6.014414336,1.0000769644044167,-114.14496022316696
6.019219456,1.000073083175904,-114.38587817989378
6.024024064,1.0000649840316997,-114.62675281463603
6.028828672,1.0000534379055694,-114.86750108744187
6.033633792,1.000038886182324,-115.10803418182438
6.0384384,1.000022263890998,-115.348405536668
6.043243008,1.000004605122509,-115.58851958354963
6.048048128,0.9999867971829739,-115.82839115328805
6.052852736,0.9999701465547047,-116.06802065792954
6.057657856,0.9999554492317533,-116.30745597664215
6.062462464,0.9999435685386534,-116.54670449337357
6.067267072,0.9999353584780237,-116.78580177111238
6.072072192,0.9999311025453517,-117.02482251979454
6.0768768,0.9999311558052139,-117.26382432613106
6.08168192,0.9999356243400633,-117.50282037774649
6.086486528,0.9999440512441978,-117.74195275122513
6.091291136,0.9999560630718436,-117.98124471923433
6.096096256,0.9999709115800767,-118.22072972093582
6.100900864,0.9999877697703579,-118.46040388746809
6.105705472,1.0000056027886635,-118.70035630258612
6.110510592,1.0000233422838998,-118.94055796642206
6.1153152,1.00003997552504,-119.18099452906849
6.12012032,1.0000545412022916,-119.42168612422834
6.124924928,1.0000661532292967,-119.66252973893128
6.129729536,1.000074114588152,-119.90353419056966
6.134534656,1.0000780278032286,-120.14460234145525
6.139339264,1.0000775541809088,-120.38574732549081
6.144144384,1.000072782784356,-120.62682931416087
6.148948992,1.0000639678477026,-120.86779480628098
6.1537536,1.0000516066840228,-121.10868078578943
6.15855872,1.0000364624022178,-121.34935087072347
6.163363328,1.000019412980683,-121.58978673098616
6.168167936,1.0000014998460514,-121.82999127739978
6.172973056,0.9999837142697384,-122.06996820704718
6.177777664,0.9999671274658815,-122.30968908326949
6.182582784,0.9999528084616174,-122.54920116592179
6.187387392,0.9999415315701702,-122.78852954741514
6.192192,0.9999338510462125,-123.02775998431
6.19699712,0.9999303229774833,-123.26690094695667
6.201801728,0.9999313548082615,-123.5060029636439
6.206606848,0.9999365599934011,-123.7451881975663
6.211411456,0.9999457755335012,-123.98446070943359
6.216216064,0.9999585047831133,-124.22389973446928
6.221021184,0.9999739158582261,-124.46353694864418
6.225825792,0.9999911334501583,-124.70339446947948
6.2306304,1.000009268730856,-124.94352940174892
6.23543552,1.0000270581320927,-125.18390271465591
6.240240128,1.0000436336185936,-125.42452708843909
6.245045248,1.0000577756869993,-125.66537601538651
6.249849856,1.0000688177211299,-125.90642200310229
6.254654464,1.0000761606580675,-126.14756315456083
6.259459584,1.0000792810846675,-126.3887870207987
6.264264192,1.0000779272242333,-126.63005715029499
6.269069312,1.0000723126330202,-126.87124855957386
6.27387392,1.000062682527602,-127.11236581492436
6.278678528,1.0000496429762116,-127.35335022510885
6.283483648,1.0000339379432692,-127.59409252801215
6.288288256,1.0000164805949183,-127.83464237625455
6.293092864,0.9999983520383032,-128.0749157964464
6.297897984,0.9999806291923481,-128.31498350185012
6.302702592,0.9999641527420635,-128.5547871094815
6.307507712,0.9999502433455206,-128.79436281522757
6.31231232,0.9999394449679732,-129.03378209010933
6.317116928,0.9999324985557734,-129.27311202182435
6.321922048,0.9999298038973415,-129.5123563351531
6.326726656,0.9999315623567525,-129.75159006930437
6.331531776,0.9999376157526095,-129.99088856752024
6.336336384,0.9999476880730624,-130.23030726184842
6.341140992,0.9999610674620695,-130.46989252858364
6.345946112,0.9999770883363036,-130.70969883672907
6.35075072,0.9999946952379519,-130.94973365886008
6.355555328,1.0000130424685867,-131.1900450152938
6.360360448,1.0000308643317677,-131.43057616923468
6.365165056,1.0000471567226676,-131.67137173577763
6.369970176,1.0000609304535137,-131.91238543304536
6.374774784,1.0000714916775975,-132.1535559260048
6.379579392,1.0000779978190728,-132.39488025259317
6.384384512,1.0000803550895758,-132.63625172430204
6.38918912,1.0000781973426278,-132.87760916649606
6.39399424,1.0000717721795849,-133.11896543423572
6.398798848,1.00006137126507,-133.36016652773023
6.403603456,1.000047667651785,-133.60124233401675
6.408408576,1.0000313539439878,-133.84206992479682
6.413213184,1.0000135111176764,-134.08266373573372
6.418017792,0.9999951881360877,-134.32300571428493
6.422822912,0.9999774636188585,-134.56312750238814
6.42762752,0.9999612176941758,-134.80300409606258
6.43243264,0.9999476186445481,-135.04266032601652
6.437237248,0.9999374249613215,-135.28217312850913
6.442041856,0.9999312846018263,-135.52157770593848
6.446846976,0.9999293961769177,-135.76092588366978
6.451651584,0.999931976471238,-136.00027894439455
6.456456704,0.9999388764822945,-136.23968635303245
6.461261312,0.9999496552082744,-136.47926580864763
6.46606592,0.9999637410131574,-136.71898108568922
6.47087104,0.9999802926436305,-136.95892751301054
6.475675648,0.9999983479052559,-137.199104891409
6.480480256,1.0000168012673312,-137.43954815583345
6.485285376,1.0000345455636823,-137.6802788516001
6.490089984,1.0000506550246575,-137.92123206179926
6.494895104,1.000064022943071,-138.16239509813377
6.499699712,1.0000739291811782,-138.40372600966649
6.50450432,1.0000798161939537,-138.64515147554565
6.50930944,1.0000812789357376,-138.88663920211863
6.514114048,1.000078349377943,-139.12814334666666
6.518919168,1.0000710583387968,-139.36959619173163
6.523723776,1.0000598522921627,-139.61087952489154
6.528528384,1.0000454115405901,-139.85199940074767
6.533333504,1.0000286252450084,-140.09290437564331
6.538138112,1.0000104518720438,-140.33356835053286
6.54294272,0.9999919153774863,-140.57400753941624
6.54774784,0.9999742599137992,-140.81416791908433
6.552552448,0.999958350891676,-141.05409601732373
6.557357568,0.9999451885013884,-141.29381244207835
6.562162176,0.999935568536559,-141.53340140132806
6.566966784,0.9999301154093803,-141.7728722633023
6.571771904,0.9999290720181365,-142.01231192530128
6.576576512,0.9999324954346014,-142.25175015166081
6.581381632,0.9999402491489351,-142.49127663123824
6.58618624,0.9999518074369005,-142.730967348877
6.590990848,0.9999665634085477,-142.97082159288456
6.595795968,0.9999836378435836,-143.21091713547776
6.600600576,1.0000020471548943,-143.45125067685476
6.605405184,1.0000206460110574,-143.6918554947621
6.610210304,1.0000383564361188,-143.93270924998248
6.615014912,1.0000541528976281,-144.17382681636514
6.619820032,1.0000670085137506,-144.41511888729826
6.62462464,1.000076393860892,-144.65657290580117
6.629429248,1.0000814932448416,-144.89814045056045
6.634234368,1.0000821635155992,-145.1397472447272
6.639038976,1.000078299652316,-145.38133816778765
6.643844096,1.0000701627905413,-145.6228442619988
6.648648704,1.000058204525115,-145.86422103477042
6.653453312,1.000043160210608,-146.10542265913597
6.658258432,1.0000257673186013,-146.34638268992683
6.66306304,1.0000072935942717,-146.58709157246997
6.667867648,0.9999886427424075,-146.82755763440295
6.672672768,0.9999710354488281,-147.06779185744296
6.677477376,0.9999554152858571,-147.3077531475684
6.682282496,0.9999427510262149,-147.54754250088547
6.687087104,0.9999337927789126,-147.78718641735904
6.691891712,0.9999290961403163,-148.02670342879665
6.696696832,0.99992889734093,-148.2662325281138
6.70150144,0.9999331515138155,-148.50575297039515
6.70630656,0.9999417737597542,-148.74539867766595
6.711111168,0.9999541374065364,-148.985199940588
6.715915776,0.9999695419736129,-149.22516893131714
6.720720896,0.9999870562260155,-149.46540177767574
6.725525504,1.0000057915292186,-149.7058654673175
6.730330112,1.000024450828816,-149.9466014531288
6.735135232,1.0000421125933745,-150.18759551067257
6.73993984,1.000057584705286,-150.42883353478533
6.74474496,1.0000699608113108,-150.67025906586485
6.749549568,1.0000786123988097,-150.91184940010788
6.754354176,1.0000830089444899,-151.15350781725485
6.759159296,1.0000828049718835,-151.39522261900447
6.763963904,1.0000781263758693,-151.63691760591607
6.768769024,1.0000691745617187,-151.87847689730256
6.773573632,1.0000563770922422,-152.11993140579793
6.77837824,1.000040653552628,-152.36117771540043
6.78318336,1.0000228494740042,-152.60217562076753
6.787987968,1.0000041242729898,-152.842922451601
6.792792576,0.9999853821845321,-153.08342041264754
6.797597696,0.9999678073868281,-153.32367695208052
6.802402304,0.9999525057324667,-153.56369225581403
6.807207424,0.9999404302260562,-153.803529632168
6.812012032,0.9999320875781504,-154.04318911036452
6.81681664,0.9999280956679378,-154.2827908012849
6.82162176,0.99992878753706,-154.52237358684002
6.826426368,0.9999339204639651,-154.7620073582196
6.831230976,0.9999433585053559,-155.00171931541962
6.836036096,0.999956420590635,-155.2416218359215
6.840840704,0.9999725499788364,-155.4817177217743
6.845645824,0.9999906006195369,-155.72204377531554
6.850450432,1.0000095759880188,-155.96266202364114
6.85525504,1.0000283161565382,-156.20351517945096
6.86006016,1.0000457401638199,-156.44463705106648
6.864864768,1.000060881410743,-156.685979571202
6.869669888,1.0000728191976225,-156.9275398010533
6.874474496,1.0000807557379177,-157.16923720422636
6.879279104,1.000084364215188,-157.41100385348096
6.884084224,1.0000832698309468,-157.6528028994735
6.888888832,1.0000776900718125,-157.8945308316227
6.89369344,1.0000678537548304,-158.13616954273917
6.89849856,1.000054424844154,-158.37767398217744
6.903303168,1.0000380679301661,-158.61894009615932
6.908108288,1.0000198473567683,-158.85996974555295
6.912912896,1.0000007160361244,-159.10076130012672
6.917717504,0.999981982482566,-159.34128703940684
6.922522624,0.9999646205048879,-159.58155837425377
6.927327232,0.9999497098131603,-159.82156972503745
6.932132352,0.9999380959505505,-160.06145131109784
6.93693696,0.9999304802716824,-160.30116916386072
6.941741568,0.9999273187973353,-160.54080883293108
6.946546688,0.9999287916009544,-160.78045301773304
6.951351296,0.9999348926723884,-161.0201457769778
6.956155904,0.9999451553317799,-161.25995802803672
6.960961024,0.9999589360982273,-161.49995194046676
6.965765632,0.9999757581039521,-161.74014276006324
6.970570752,0.9999941568066639,-161.9805995363222
6.97537536,1.0000133587850981,-162.22130643742622
6.980179968,1.0000321938636971,-162.46229681862667
6.984985088,1.0000494487541265,-162.70353449943698
6.989789696,1.000064259013756,-162.94501047442458
6.994594816,1.0000755712257918,-163.18664560570002
6.999399424,1.0000827679760071,-163.42844090395673
7.004204032,1.0000856143976156,-163.67027454538257
7.009009152,1.000083612227434,-163.91215626352215
7.01381376,1.0000771700874493,-164.15396367890742
7.018618368,1.0000665192680922,-164.39564091394766
7.023423488,1.0000522704496262,-164.63715226583147
7.028228096,1.0000352765259193,-164.87846004215453
7.033033216,1.0000166396482566,-165.11952261196308
7.037837824,0.9999973036755276,-165.36030213769672
7.042642432,0.9999785861377561,-165.60083867330056
7.047447552,0.9999613806743542,-165.84111625445698
7.05225216,0.9999468125470151,-166.08116273530314
7.05705728,0.9999358373033624,-166.32103226487723
7.061861888,0.9999289424844581,-166.56082059157782
7.066666496,0.9999266521997059,-166.80048628094136
7.071471616,0.9999290183589781,-167.04019335152847
7.076276224,0.99993590443017,-167.27994863841172
7.081080832,0.9999470833819608,-167.5198305168302
7.085885952,0.9999616558306321,-167.7598757322422
7.09069056,0.9999789637411634,-168.00020762862133
7.09549568,0.9999978486110063,-168.24072925019928
7.100300288,1.0000172557764322,-168.48156416439784
7.105104896,1.0000360450770132,-168.72264491842
7.109910016,1.000053110753733,-168.96399626831703
7.114714624,1.0000674352158838,-169.20554674262488
7.119519744,1.0000781754534511,-169.44727748271475
7.124324352,1.0000846636556413,-169.68915153637613
7.12912896,1.0000865815003939,-169.9310747350967
7.13393408,1.0000837692240334,-170.17301141371837
7.138738688,1.0000763966044939,-170.41485144500103
7.143543296,1.0000648601782827,-170.65656226167062
7.148348416,1.0000500004920858,-170.89809950739655
7.153153024,1.0000324193896397,-171.13943413234205
7.157958144,1.0000133939927676,-171.38048284497202
7.162762752,0.9999938065592594,-171.62125808055288
7.16756736,0.9999750482951977,-171.86178588673687
7.17237248,0.9999582409128464,-172.10208098723734
7.177177088,0.999944052038417,-172.3421215982323
7.181982208,0.9999336077956569,-172.58199809342292
7.186786816,0.9999274972403476,-172.82178276849186
7.191591424,0.999926035258635,-173.06148851008874
7.196396544,0.9999293590974128,-173.301245742091
7.201201152,0.9999371341561312,-173.54104824416982
7.20600576,0.9999490352493746,-173.78101043233383
7.21081088,0.9999643441048851,-174.02115260968174
7.215615488,0.9999821830290886,-174.2615218571404
7.220420608,1.0000014924079454,-174.5021757516817
7.225225216,1.0000210802556149,-174.7430795230441
7.230029824,1.0000398750132369,-174.98427051576536
7.234834944,1.0000567091817674,-175.22569623934038
7.239639552,1.0000705718466196,-175.467353681757
7.244444672,1.0000806722187432,-175.70916302785184
7.24924928,1.0000864379893553,-175.95109074942175
7.254053888,1.0000875568264755,-176.19307669091603
7.258859008,1.0000837875000212,-176.43503353740462
7.263663616,1.0000755024324588,-176.67694946055144
7.268468224,1.0000631868475987,-176.91868759184652
7.273273344,1.0000475442221473,-177.1602245801879
7.278077952,1.000029449558443,-177.40153619603015
7.282883072,1.000009914314827,-177.642562645573
7.28768768,0.9999903317157379,-177.8833629476363
7.292492288,0.9999715348411107,-178.12385655938306
7.297297408,0.9999549063362289,-178.36412758119934
7.302102016,0.9999412832425556,-178.60419710819835
7.306907136,0.9999314574139775,-178.84406176052258
7.311711744,0.9999261864657549,-179.08383658308537
7.316516352,0.9999254946817585,-179.32359757020396
7.321321472,0.9999296776085369,-179.5633419954934
7.32612608,0.9999383659358853,-179.8032097608205
7.330930688,0.9999511700908292,179.9567933577812
7.335735808,0.9999671726837267,179.71658306045225
7.340540416,0.9999855929381188,179.47612095618072
7.345345536,1.0000052385649305,179.23539195276172
7.350150144,1.000024971795256,178.99441105100462
7.354954752,1.0000437374325812,178.75311991600788
7.359759872,1.000060121528688,178.5116302693133
7.36456448,1.0000735998042378,178.26988549166055
7.3693696,1.0000830595431207,178.02804058216032
7.374174208,1.0000880232534644,177.7860351038903
7.378978816,1.0000881819143017,177.5440044084838
7.383783936,1.0000834930508673,177.3020001704361
7.388588544,1.000074347006563,177.0601059005795
7.393393152,1.0000612268974356,176.8183451609994
7.398198272,1.0000448979133016,176.5768075615003
7.40300288,1.0000261805179784,176.33550977342145
7.407808,1.0000064566422022,176.09449482537926
7.412612608,0.9999866386413858,175.85374272254668
7.417417216,0.9999680441203677,175.61324833828232
7.422222336,0.9999516605704082,175.37303071702695
7.427026944,0.9999385867335673,175.13299090804358
7.431832064,0.9999294885609217,174.89309682598468
7.436636672,0.9999249310614774,174.65331130274487
7.44144128,0.9999251821467768,174.41356768752263
7.4462464,0.9999303057883615,174.17379056701017
7.451051008,0.9999398261836007,173.93388443265027
7.455855616,0.9999533910751078,173.6938282338426
7.460660736,0.9999701929593401,173.4535614434999
7.465465344,0.9999891013958355,173.21304235352403
7.470270464,1.0000090172491716,172.97227517019454
7.475075072,1.0000289101864486,172.7312045719076
7.47987968,1.0000474336146894,172.48986643604263
7.4846848,1.0000636277754118,172.2482798783642
7.489489408,1.0000764699389322,172.0064863021525
7.494294528,1.000085371006491,171.76454013895682
7.499099136,1.0000894652316106,171.52250249436523
7.503903744,1.000088641015672,171.28046026851595
7.508708864,1.0000831722215209,171.0384382778033
7.513513472,1.0000730821859611,170.79652594620265
7.51831808,1.0000591582219471,170.55478997436427
7.5231232,1.0000421273929574,170.31327060307035
7.527927808,1.0000229647450192,170.0720027450458
7.532732928,1.000002878838754,169.8310022415008
7.537537536,0.9999829288913632,169.59029329155186
7.542342144,0.9999645434177028,169.34984178361964
7.547147264,0.9999484013768658,169.1096422865478
7.551951872,0.9999358294221682,168.86964337848897
7.556756992,0.9999275175722705,168.62979003792483
7.5615616,0.9999237902869847,168.3900155842477
7.566366208,0.9999249947046418,168.15025282655108
7.571171328,0.9999308889468335,167.91045102140671
7.575975936,0.9999414040060076,167.6705498130718
7.580780544,0.9999556874135275,167.43045930004862
7.585585664,0.9999732097088858,167.1901372811399
7.590390272,0.9999926318012674,166.9495476443006
7.595195392,1.0000128532465073,166.7087016740596
7.6,1.0000328587836098,166.46757390572475
7.604804608,1.0000512351129183,166.22617524844375
7.609609728,1.0000670535097882,165.9845301112128
7.614414336,1.000079318008692,165.7426892883654
7.619219456,1.0000873596766962,165.500708531924
7.624024064,1.0000906767993059,165.2586430474738
7.628828672,1.0000890267616864,165.01656767518116
7.633633792,1.0000825439212742,164.77455085605305
7.6384384,1.0000716844633912,164.53265419453317
7.643243008,1.0000569250224653,164.29091909691476
7.648048128,1.000039122153495,164.04944538113915
7.652852736,1.0000195298913503,163.8082003655897
7.657657856,0.9999991322335179,163.5672671714939
7.662462464,0.9999792270221659,163.326605586567
7.667267072,0.9999608744098701,163.0861884022911
7.672072192,0.9999452466741741,162.8460395549779
7.6768768,0.9999332293837303,162.606075321235
7.68168192,0.9999255663137377,162.3662653707549
7.686486528,0.999922724596425,162.12650843734275
7.691291136,0.999924791291818,161.88675353318015
7.696096256,0.9999317272539352,161.6469524729059
7.700900864,0.9999431802460553,161.4070056853965
7.705705472,0.999958331032066,161.16686491090923
7.710510592,0.9999763371067663,160.92652913385564
7.7153152,0.999996244441709,160.68592188790717
7.72012032,1.0000167498255965,160.4450053282893
7.724924928,1.0000367351180306,160.203843728658
7.729729536,1.0000550144213152,159.96236836723386
7.734534656,1.0000704511634568,159.72069200243686
7.739339264,1.0000820864634365,159.47878675218075
7.744144384,1.0000893952153969,159.2367809423157
7.748948992,1.0000917914912182,158.99471041670392
7.7537536,1.0000892011658025,158.75262758596918
7.75855872,1.0000818464938792,158.51061385160287
7.763363328,1.000069979645571,158.26872450932336
7.768167936,1.000054453880337,158.02704597118358
7.772973056,1.0000361381102862,157.78559638751454
7.777777664,1.0000160435900556,157.54442785045268
7.782582784,0.9999954696756036,157.30353411057138
7.787387392,0.9999753750047327,157.06293899131546
7.792192,0.9999572973913278,156.8225887788318
7.79699712,0.9999420930509099,156.58249770798702
7.801801728,0.999930705457216,156.34255824409118
7.806606848,0.999923845583619,156.102782222155
7.811411456,0.9999218408909567,155.86304703438051
7.816216064,0.9999248618228587,155.62332100981268
7.821021184,0.999932756250144,155.3835075781974
7.825825792,0.9999450121449523,155.14355806535895
7.8306304,0.9999610021275491,154.9034311335994
7.83543552,0.9999796687190381,154.6630426050268
7.840240128,0.9999999613452842,154.42238061723444
7.845045248,1.0000207144420685,154.1814384710907
7.849849856,1.000040618025926,153.9402099182348
7.854654464,1.0000587529003078,153.69871938481467
7.859459584,1.0000736592132975,153.4569827490999
7.864264192,1.0000847068989214,153.21508640385824
7.869069312,1.000091155773269,152.97305038662637
7.87387392,1.0000927397147807,152.7309523696873
7.878678528,1.0000892333272577,152.4888774441639
7.883483648,1.0000808571909536,152.24689575980122
7.888288256,1.0000681427451685,152.00504913394937
7.893092864,1.0000518270685919,151.76342152941416
7.897897984,1.0000328855662222,151.52203396805822
7.902702592,1.000012400630597,151.28091785721435
7.907507712,0.9999914504265126,151.04009804839765
7.91231232,0.9999715561141105,150.7995542549371
7.917116928,0.9999537145613189,150.55929368540018
