freq,mag,phase
6.0,0.9999134878896323,127.24628248496096
6.00326144,0.999922549874029,127.02865945085777
6.00652288,0.9999370156063283,126.81088859754291
6.009783808,0.9999555250245977,126.59291461322961
6.013045248,0.9999768164312027,126.37468172227726
6.016306688,0.9999995876458405,126.15616920390931
6.019568128,1.0000226085371833,125.93733133561189
6.022829056,1.000044375703893,125.71822139082909
6.026090496,1.0000634759903335,125.49884087786144
6.029351936,1.0000789004612554,125.27924055677303
6.032613376,1.0000895235214773,125.05946188234634
6.035874304,1.0000948252348754,124.8396080502077
6.039135744,1.0000944991778533,124.61975976346812
6.042397184,1.000088426196779,124.39997267079573
6.045658624,1.0000771533883204,124.18032945027404
6.048919552,1.0000612705716148,123.96090662315422
6.052180992,1.0000416932054792,123.74175565844757
6.055442432,1.0000196851412968,123.52294785944704
6.058703872,0.9999966175818938,123.30446099781798
6.0619648,0.9999739535758462,123.08634422428511
6.06522624,0.9999528525181125,122.86855302696128
6.06848768,0.9999348251235133,122.65106796940923
6.07174912,0.999920802394244,122.43384368807483
6.075010048,0.9999118075705775,122.21680449597207
6.078271488,0.9999083469959912,121.99989081326976
6.081532928,0.9999105491732542,121.78298115437457
6.084794368,0.9999184017239123,121.56606848752898
6.088055296,0.9999312648732266,121.34900777969682
6.091316736,0.9999485224040832,121.13175771679052
6.094578176,0.9999689868880685,120.91426060244844
6.097839616,0.9999915152520582,120.69648055179132
6.101100544,1.0000147052390047,120.4784016253499
6.104361984,1.000037064547412,120.26001770156239
6.107623424,1.000057343691218,120.04137250981537
6.110884864,1.0000740735437486,119.8224741483585
6.114145792,1.0000864526878657,119.60339006371655
6.117407232,1.0000937636065907,119.38419738135264
6.120668672,1.000095380202958,119.16496310759659
6.123930112,1.0000913869007695,118.94576570505379
6.12719104,1.0000818321265663,118.7266822084437
6.13045248,1.000067408388962,118.50780980130355
6.13371392,1.000048971478926,118.28920165501289
6.13697536,1.0000275657835493,118.07089002137863
6.140236288,1.0000046790325567,117.85290598435041
6.143497728,0.9999815928858193,117.63528980581465
6.146759168,0.9999598307119871,117.41802921747589
6.150020608,0.9999404300282186,117.20106626428651
6.153281536,0.9999250067223008,116.9843696462177
6.156542976,0.9999140516240506,116.76790207598036
6.159804416,0.9999085989134973,116.5515732552062
6.163065856,0.9999089599573935,116.33529973391808
6.166326784,0.9999147464039216,116.11901482313958
6.169588224,0.9999260067760442,115.90262276098692
6.172849664,0.9999418849545433,115.68606673457045
6.176111104,0.9999614811403317,115.46926621072856
6.179372032,0.9999835279960743,115.25221269438318
6.182633472,1.000006589269025,115.03483519946735
6.185894912,1.0000295822537,114.81718430065928
6.189156352,1.000050644933256,114.5992301571236
6.19241728,1.0000688516978387,114.38100902678106
6.19567872,1.0000829061835863,114.1625936699963
6.19894016,1.0000920553275625,113.94401893827764
6.2022016,1.0000957376820554,113.72537920413176
6.205462528,1.0000937058811412,113.50676172133907
6.208723968,1.0000858410970945,113.28824790086887
6.211985408,1.0000729821000796,113.06987658321978
6.215246848,1.0000558355562075,112.85175883423797
6.218507776,1.0000353779499693,112.63392334443239
6.221769216,1.0000127480786563,112.4164233621194
6.225030656,0.9999894542698309,112.19928573603615
6.228292096,0.9999670050309061,111.98247587199872
6.231553024,0.9999466294867088,111.76601123865875
6.234814464,0.9999296576617156,111.54983272973875
6.238075904,0.9999171155122374,111.33387306532121
6.241337344,0.9999097093737398,111.118091643634
6.244598272,0.9999078718781323,110.90239621706087
6.247859712,0.9999119033793968,110.68670014194431
6.251121152,0.9999213209263176,110.47093976056459
6.254382592,0.9999356982308667,110.25503742479607
6.25764352,0.9999542324653415,110.03891251913659
6.26090496,0.9999754841087654,109.8225100355291
6.2641664,0.9999985807068921,109.60584219623303
6.26742784,1.000021672545148,109.38884414945684
6.270688768,1.0000437174823167,109.1715692604699
6.273950208,1.0000631478250688,108.9539951634075
6.277211648,1.0000786947733782,108.73621140143801
6.280473088,1.0000896957740586,108.51826366656103
6.283734016,1.0000952782465815,108.30018460185109
6.286995456,1.0000951974685939,108.08212885823184
6.290256896,1.0000893798439687,107.86411058999472
6.293518336,1.0000781757705743,107.64624358485668
6.296779264,1.0000622413318039,107.42858936086668
6.300040704,1.0000427633280096,107.21120745791873
6.303302144,1.0000206889274934,106.9941516716818
6.306563584,0.9999974547744351,106.7774304906208
6.309824512,0.9999744084557325,106.56107296851681
6.313085952,0.9999531596983147,106.34504075537717
6.316347392,0.9999348301274801,106.12932117089346
6.319608832,0.9999206106842279,105.91385350254552
6.32286976,0.9999113317884526,105.69857705221327
6.3261312,0.9999075403270051,105.48340825579125
6.32939264,0.9999095517672515,105.26826268847347
6.33265408,0.9999171791741719,105.05308905202004
6.335915008,0.9999300780193157,104.83778549636882
6.339176448,0.9999473064104759,104.62227510053548
6.342437888,0.9999678804609498,104.40653482556567
6.345699328,0.9999904293878481,104.1904795401274
6.348960256,1.0000137761470604,103.97414717391865
6.352221696,1.0000364290236092,103.75750329304059
6.355483136,1.0000568096643156,103.54054771861117
6.358744576,1.0000740108081723,103.32336714847534
6.362005504,1.0000867189067804,103.10598331553285
6.365266944,1.0000943084208933,102.88846811139625
6.368528384,1.0000961133698696,102.6709342501938
6.371789824,1.0000922182003977,102.45341140458467
6.375050752,1.0000828254582093,102.23599500772085
6.378312192,1.0000684311221626,102.01878463252076
6.381573632,1.0000499565438536,101.80183738115146
6.384835072,1.0000284915917186,101.58517764403678
6.388096,1.0000055259137062,101.3688600634371
6.39135744,0.9999822242783563,101.15288580023415
6.39461888,0.9999601189899318,100.9372581944478
6.39788032,0.9999404994337745,100.72194545551517
6.401141248,0.9999247397507391,100.50690308912979
6.404402688,0.9999136446572809,100.2920955850619
6.407664128,0.99990793971122,100.07742053170699
6.410925568,0.9999079536307883,99.86277604503188
6.414186496,0.9999136641954537,99.64813696806104
6.417447936,0.9999248510762705,99.4333866009985
6.420709376,0.9999406514774939,99.21846882209766
6.423970816,0.9999602887129752,99.0033088331967
6.427231744,0.9999824647247255,98.7878541032806
6.430493184,1.000005811792579,98.57213372007622
6.433754624,1.0000288149294956,98.35607405493559
6.437016064,1.0000502718361586,98.13971762918186
6.440276992,1.0000687779502107,97.92312637276261
6.443538432,1.0000830707136188,97.70627530830322
6.446799872,1.0000924914472533,97.48929399161014
6.450061312,1.0000963580890132,97.2722355535196
6.45332224,1.0000944172862427,97.05516313557938
6.45658368,1.000086868717635,96.83819230615714
6.45984512,1.0000740110988766,96.62138465571994
6.46310656,1.000056884362164,96.40482165638593
6.466367488,1.0000362729248626,96.18852575358248
6.469628928,1.000013532890958,95.97257414821661
6.472890368,0.9999900783813729,95.75695383041977
6.476151808,0.9999673834582623,95.54168660858474
6.479412736,0.9999467663160088,95.32674022296568
6.482674176,0.999929458029993,95.11209906372207
6.485935616,0.9999166117328007,94.8976937274591
6.489197056,0.9999089373347001,94.68342585746943
6.492457984,0.9999070188417596,94.46926177790667
6.495719424,0.9999109414309196,94.25509942157723
6.498980864,0.9999202478350646,94.04085965427655
6.502242304,0.9999345796225299,93.82647848962739
6.505503232,0.9999530847331831,93.61186182935522
6.508764672,0.9999745326283179,93.3969865668452
6.512026112,0.999997635216282,93.18182423961511
6.515287552,1.0000211029709762,92.9663352432084
6.51854848,1.0000433368083568,92.7505241697625
6.52180992,1.0000629547571387,92.53444513443524
6.52507136,1.000078956662318,92.31812083844657
6.5283328,1.000090136046341,92.1016333068125
6.531593728,1.000096082805591,91.8850348249717
6.534855168,1.0000960908760197,91.66840990572247
6.538116608,1.0000903154125527,91.45181937600654
6.541378048,1.0000792787272437,91.23539384737583
6.544638976,1.0000633823838427,91.0191806949645
6.547900416,1.0000437870599799,90.8032165831444
6.551161856,1.0000215291020556,90.58756787394663
6.554423296,0.9999981601191181,90.37227286651515
6.557684224,0.9999749214499688,90.15733289519791
6.560945664,0.9999534717247315,89.94271494976172
6.564207104,0.9999348216471703,89.72839679047522
6.567468544,0.999920286799136,89.5143501533754
6.570729472,0.9999107870129933,89.30048189931811
6.573990912,0.9999067834063706,89.08672216782331
6.577252352,0.9999085819627844,88.87298609663591
6.580513792,0.9999161442110244,88.65921134344217
6.58377472,0.9999289211883421,88.44531523444448
6.58703616,0.9999462149381545,88.23119970147445
6.5902976,0.9999667782023121,88.01682965615723
6.59355904,0.9999896613257897,87.80218398308446
6.596819968,1.000013164686215,87.58721370400849
6.600081408,1.0000360240751527,87.37193688468753
6.603342848,1.000056740170754,87.15636084127695
6.606604288,1.0000742127386897,86.94050946648774
6.609865216,1.0000871002742384,86.72446133689482
6.613126656,1.0000948790143596,86.50829120726775
6.616388096,1.000096956793528,86.2920631229075
6.619649536,1.0000932402754872,86.07585846086313
6.622910976,1.0000838574433113,85.85975502693748
6.626171904,1.0000694915939357,85.64384674356855
6.629433344,1.0000509931047357,85.42817592108776
6.632694784,1.0000294341911076,85.21283044206051
6.635956224,1.0000061936573366,84.99780052672617
6.639217152,0.9999827519564157,84.78312785859985
6.642478592,0.9999603888721064,84.56878920909732
6.645740032,0.9999406061228763,84.35477613872492
6.649001472,0.9999244728145451,84.14102317008789
6.6522624,0.9999131210436565,83.92747333785726
6.65552384,0.9999071572957752,83.71407111262661
6.65878528,0.9999070172655957,83.5007340734403
6.66204672,0.9999126917219385,83.28737359697026
6.665307648,0.9999237232042743,83.07389691933965
6.668569088,0.9999396360947466,82.86023037923502
6.671830528,0.9999592638992044,82.6463484636072
6.675091968,0.9999815991537774,82.43215906089489
6.678352896,1.000005131332397,82.21766416085462
6.681614336,1.0000284376054793,82.00285307297052
6.684875776,1.0000500724418606,81.78772399967649
6.688137216,1.0000688592893077,81.57235641252683
6.691398144,1.0000834791297764,81.35671541711294
6.694659584,1.0000931372310005,81.14093026503927
6.697921024,1.000097249015544,80.92508503950248
6.701182464,1.0000953731883355,80.70920516783889
6.704443392,1.0000879368536746,80.49340891830525
6.707704832,1.0000751682446203,80.2777899004347
6.710966272,1.0000579303180992,80.0623844212649
6.714227712,1.0000371546876548,79.84726245322065
6.71748864,1.0000143196748816,79.63246948121726
6.72075008,0.9999906858625395,79.41802229978234
6.72401152,0.9999677156305504,79.20389500543793
6.72727296,0.9999467985694762,78.9901221082512
6.730533888,0.9999292742941995,78.77662831586498
6.733795328,0.9999161737992279,78.56336357307433
6.737056768,0.9999083438037315,78.35026592672519
6.740318208,0.9999061682603357,78.13725530577531
6.743579136,0.9999097700736259,77.92424590071619
6.746840576,0.9999191485210995,77.71114232740118
6.750102016,0.999933494162359,77.497875348108
6.753363456,0.9999520295912188,77.28441810303646
6.756624384,0.9999736971303382,77.07066219187307
6.759885824,0.999997010160534,76.85661055210193
6.763147264,1.0000205887480358,76.64222416605077
6.766408704,1.0000430187386489,76.42753158111802
6.769669632,1.0000630109402093,76.21254349956858
6.772931072,1.0000792518433752,75.99730261356905
6.776192512,1.0000906533219969,75.78188030862057
6.779453952,1.0000967615976555,75.56635222923428
6.78271488,1.0000969509180253,75.350772805903
6.78597632,1.0000914381860102,75.13526371862484
6.78923776,1.0000803038957657,74.91986388637135
6.7924992,1.000064398492874,74.70466879515506
6.795760128,1.0000447333059261,74.48976169944602
6.799021568,1.0000222922827777,74.27515216627681
6.802283008,0.9999987196357633,74.06087924870285
6.805544448,0.9999753161437993,73.84693880503599
6.808805376,0.999953501434642,73.63336541588822
6.812066816,0.9999345788008063,73.4200719147212
6.815328256,0.99991981829231,73.2070301666255
6.818589696,0.9999100493823971,72.99418028447039
6.821850624,0.9999059600909987,72.78144600841726
6.825112064,0.999907611727873,72.56873288190167
6.828373504,0.9999151110319372,72.35595405630426
6.831634944,0.9999278777940191,72.14305991497253
6.834895872,0.9999451505099323,71.9299464183452
6.838157312,0.9999658869562886,71.71657318927397
6.841418752,0.9999889237183974,71.50290002452046
6.844680192,1.000012662350071,71.28891852933273
6.84794112,1.0000357564329259,71.07458772277229
6.85120256,1.0000567246781125,70.85997280215328
6.854464,1.0000743846994413,70.64508610382738
6.85772544,1.0000876617186398,70.42997198568587
6.860986368,1.0000956452562157,70.21472647329877
6.864247808,1.0000978524675836,69.99942334306603
6.867509248,1.0000942382884999,69.784143776481
6.870770688,1.0000849306096662,69.5689584939512
6.874031616,1.000070540076596,69.35394916731137
6.877293056,1.0000520027663649,69.13917453254267
6.880554496,1.0000302214078465,68.92471572834916
6.883815936,1.000006861852384,68.71057692563716
6.887076864,0.9999831926678897,68.49679336088111
6.890338304,0.9999605600235444,68.28334271595122
6.893599744,0.9999404374590357,68.0702048163866
6.896861184,0.9999240510804328,67.85734197123845
6.900122112,0.9999124663257163,67.6446784517361
6.903383552,0.9999063537935536,67.43216101615747
6.906644992,0.9999060705197399,67.21968466973198
6.909906432,0.9999115852312814,67.00719213233658
6.91316736,0.9999226783766885,66.79458394700103
6.9164288,0.9999385677199509,66.58178680814845
6.91969024,0.9999584271928499,66.36876057739481
6.92295168,0.9999808468510542,66.15542321240386
6.926212608,1.0000045875028336,65.94176446812446
6.929474048,1.0000280782596296,65.7277905992985
6.932735488,1.0000500823290435,65.51348898062288
6.935996928,1.000069084584983,65.29891365534918
6.939257856,1.0000839399114718,65.08408613904294
6.942519296,1.000093806365378,64.86909370373415
6.945780736,1.0000980440476077,64.65401953480722
6.949042176,1.0000963577257438,64.43892602141447
6.952303104,1.0000889885217048,64.22390387065867
6.955564544,1.0000762066637414,64.0090454931291
6.958825984,1.0000588390875758,63.79439904564328
6.962087424,1.0000380738216734,63.58003932486718
6.965348352,1.0000149735291464,63.365978021949445
6.968609792,0.9999911400215685,63.15227221295331
6.971871232,0.9999679037543164,62.93891151537055
6.975132672,0.9999466796458946,62.72587760434944
6.9783936,0.9999289328477899,62.51313356907687
6.98165504,0.9999155767178963,62.30060951960659
6.98491648,0.9999075118057655,62.08824701209563
6.98817792,0.9999051985321877,61.87596475042996
6.991438848,0.9999087914555874,61.663695014530525
6.994700288,0.9999180432658362,61.451314371622345
6.997961728,0.9999325065203262,61.23878733272662
7.001223168,0.9999511110744949,61.026030641716495
7.004484096,0.9999729028968558,60.81299248788297
7.007745536,0.9999963960002365,60.5996339829717
7.011006976,1.0000202194503818,60.38594586353933
7.014268416,1.0000429748226378,60.171934398715386
7.017529344,1.0000631942717553,59.95761816487891
7.020790784,1.0000797052830805,59.743032390801346
7.024052224,1.000091355933501,59.528275670994674
7.027313664,1.000097580390991,59.31337307930018
7.030574592,1.0000980016964252,59.09844345602366
7.033836032,1.0000924690503104,58.88355438843277
7.037097472,1.000081435300711,58.66878703035711
7.040358912,1.0000654953140322,58.45422068504251
7.04361984,1.0000455942275817,58.239920251928815
7.04688128,1.0000231015304348,58.02591091018946
7.05014272,0.9999992956694281,57.8122523291861
7.05340416,0.9999755427954156,57.5989322163562
7.056665088,0.9999534409388436,57.385931648892004
7.059926528,0.9999343667275152,57.173253180221025
7.063187968,0.9999192793107721,56.96079946560267
7.066449408,0.9999093723866812,56.748555368793646
7.069710336,0.9999050101627557,56.536405610039466
7.072971776,0.9999066036570053,56.32428922689552
7.076233216,0.999914004618254,56.1120905586911
7.079494656,0.9999268025019579,55.8997855950738
7.082755584,0.9999441485787863,55.6872540226577
7.086017024,0.9999650901164799,55.47445238088182
7.089278464,0.9999882561858455,55.26133593945602
7.092539904,1.0000121563597455,55.0478993591909
7.095800832,1.0000355619707133,54.83410891294054
7.099062272,1.000056841847509,54.62002196295289
7.102323712,1.0000748354606013,54.40565556016062
7.105585152,1.0000882705191585,54.19106341133571
7.10884608,1.0000964650976119,53.97633173667125
7.11210752,1.0000988389962417,53.76151327861416
7.11536896,1.0000952791902784,53.546697626402576
7.1186304,1.0000860086669912,53.33201516754064
7.121891328,1.0000716213449616,53.1174858492113
7.125152768,1.0000528802880178,52.90318482332042
7.128414208,1.00003111307674,52.68918339444837
7.131675648,1.0000075185035544,52.475506146725095
7.134936576,0.9999834664632872,52.262182289854195
7.138198016,0.9999605605097613,52.04919672241985
7.141459456,0.9999402104615676,51.83652249963911
7.144720896,0.999923661837047,51.624091275999
7.147981824,0.9999118070888847,51.41190621725417
7.151243264,0.9999054325032121,51.199826160897956
7.154504704,0.9999051177372867,50.987809222489666
7.157766144,0.9999105507580057,50.77575856441622
7.161027072,0.9999216208364275,50.56358096518421
7.164288512,0.9999376173977784,50.351215573607575
7.167549952,0.999957525216084,50.13861228637568
7.170811392,0.9999800853371457,49.9256898913478
7.17407232,1.0000040167637387,49.71245353257868
7.17733376,1.0000278937845846,49.49886428451837
7.1805952,1.0000501494911953,49.28496012020459
7.18385664,1.0000694293554648,49.07075252153323
7.187117568,1.0000845613346911,48.85630188262781
7.190379008,1.0000946757885505,48.64168816931441
7.193640448,1.0000990441717448,48.42694405236801
7.196901888,1.0000974932489175,48.21220373309067
7.200162816,1.0000901112516687,47.99751089326284
7.203424256,1.0000773364953213,47.78298806054213
7.206685696,1.000059964064703,47.568662880769466
7.209947136,1.0000389104279515,47.35462623409901
7.213208064,1.000015678706227,47.1408718451544
7.216469504,0.9999916320323822,46.92751341928724
7.219730944,0.9999680361057285,46.71445578357141
7.222992384,0.9999466255010259,46.50174673515243
7.226253312,0.9999286028563905,46.28929372009268
7.229514752,0.9999149243879472,46.07708039732467
7.232776192,0.999906662448205,45.86503560306462
7.236037632,0.9999042269184963,45.6530557286472
7.239299072,0.9999077632454018,45.441064220492684
7.24256,0.9999170164814666,45.22899924314089
7.24582144,0.9999314947922787,45.016740793961226
7.24908288,0.9999502258910863,44.804269790341486
7.25234432,0.9999721232160247,44.591510721863884
7.255605248,0.9999958163431983,44.37843284585113
7.258866688,1.0000199894767645,44.16498736889808
7.262128128,1.0000429716503159,43.951220574924655
7.265389568,1.0000635179356707,43.737134359894895
7.268650496,1.0000802378842033,43.52277037099518
7.271911936,1.0000921671772212,43.30822049532076
7.275173376,1.0000985514867398,43.09353513227609
7.278434816,1.0000990969617676,42.878813341401944
7.281695744,1.000093584585516,42.66412998356983
7.284957184,1.0000825114925826,42.44953502023771
7.288218624,1.0000665566972982,42.23514707693922
7.291480064,1.000046508697059,42.02102293106306
7.294740992,1.000023926237822,41.80719355049516
7.298002432,0.9999997604611097,41.593698899121854
7.301263872,0.9999758249614261,41.38055391227057
7.304525312,0.9999534360289992,41.16772722169315
7.30778624,0.9999340954894317,40.955215955460794
7.31104768,0.9999187523000536,40.74292415362213
7.31430912,0.9999085726561019,40.53083263616962
7.31757056,0.9999040680538018,40.31885228068503
7.320831488,0.9999055884478153,40.106876537565896
7.324092928,0.9999129635472069,39.89485212722426
7.327354368,0.999925733658745,39.68267792815075
7.330615808,0.9999432111226053,39.47027771395201
