freq,mag,phase
6.0,1.0000105157947308,-91.33433077964587
6.002286592,1.000119469221057,-91.47719968909425
6.004572672,1.0002239925447318,-91.62165910579505
6.006859264,1.0003153281466932,-91.76755458179515
6.009145344,1.0003874524337344,-91.91466242946882
6.011431936,1.0004358912292053,-92.06263299034924
6.013718016,1.0004576399083998,-92.21118059197626
6.016004608,1.000451120650396,-92.35983855102357
6.018290688,1.0004168444405366,-92.50817587725642
6.02057728,1.0003571138462901,-92.65593436920312
6.022863872,1.0002754213340517,-92.8026263113469
6.025149952,1.0001769521318826,-92.94801580621643
6.027436544,1.000068278710944,-93.09192273458108
6.029722624,0.9999559583884478,-93.23429952737037
6.032009216,0.9998474044409192,-93.37500458618351
6.034295296,0.9997491244416784,-93.51429342639594
6.036581888,0.9996676520399738,-93.6522396816895
6.03886848,0.9996081416436361,-93.78920658437595
6.04115456,0.9995741564802475,-93.92547110244239
6.043441152,0.9995682450271761,-94.06146404830042
6.045727232,0.9995904371005263,-94.19764506462889
6.048013824,0.9996394739670104,-94.33429977817218
6.050299904,0.9997123687032161,-94.47185812862641
6.052586496,0.9998042613499102,-94.61068550742898
6.054872576,0.9999093112194046,-94.75088312912021
6.057159168,1.0000212207647763,-94.8927569255703
6.05944576,1.000132593113107,-95.03621542876108
6.06173184,1.0002364028420845,-95.18130106148126
6.064018432,1.0003260852856795,-95.32774898714067
6.066304512,1.0003958649455051,-95.47540363457658
6.068591104,1.00044156605101,-95.6239096724616
6.070877184,1.0004601031332834,-95.77292368086523
6.073163776,1.000450158250312,-95.92198997978271
6.075450368,1.0004127292323803,-96.070719346161
6.077736448,1.000349798410386,-96.21877280820655
6.08002304,1.0002656625186486,-96.365736880362
6.08230912,1.0001653065482494,-96.51139733914083
6.084595712,1.0000553273907207,-96.65555112850858
6.086881792,0.999942697083605,-96.79807261973284
6.089168384,0.9998344481644393,-96.93901127411137
6.091454464,0.999737447085654,-97.07849729832354
6.093741056,0.9996579848499908,-97.21665761575451
6.096027648,0.9996011193324381,-97.35385846396682
6.098313728,0.9995701355651664,-97.4905018570301
6.10060032,0.9995674567356724,-97.6268474707336
6.1028864,0.9995930507920814,-97.76334218851783
6.105172992,0.9996451085684893,-97.90046310405889
6.107459072,0.9997208399840424,-98.03852595079019
6.109745664,0.999814949391433,-98.17785939782392
6.112032256,0.9999217477297317,-98.31864156329056
6.114318336,1.000034399168243,-98.46099375693726
6.116604928,1.0001457068371038,-98.60503235216734
6.118891008,1.0002484537893535,-98.75065975152303
6.1211776,1.0003364942869948,-98.89765031509765
6.12346368,1.000404151966364,-99.0458130651885
6.125750272,1.0004469357846917,-99.19479372095743
6.128036352,1.0004622262673202,-99.34415781192826
6.130322944,1.0004490793280925,-99.49359767068347
6.132609536,1.0004082422690774,-99.64266196131
6.134895616,1.0003423694074374,-99.79095707894237
6.137182208,1.0002556476160327,-99.93813738825692
6.139468288,1.0001534002273884,-100.08398709565326
6.14175488,1.0000423007089878,-100.22832387886166
6.14404096,0.9999294879931527,-100.37098390927731
6.146327552,0.9998216008444409,-100.51206470346817
6.148614144,0.9997260393047863,-100.65164595072528
6.150900224,0.9996485774282701,-100.79005769111839
6.153186816,0.9995942203322064,-100.92747166967544
6.155472896,0.9995664570448747,-101.06429801357282
6.157759488,0.9995670452335697,-101.2009689796684
6.160045568,0.9995959446338538,-101.33785027590602
6.16233216,0.9996512661962916,-101.47531759621964
6.16461824,0.9997295670360956,-101.61382237487376
6.166904832,0.9998259053133961,-101.75356786142235
6.169191424,0.9999341972743125,-101.89483693689058
6.171477504,1.000047439172904,-102.03775300209884
6.173764096,1.0001586699663791,-102.18227025009298
6.176050176,1.000260492428277,-102.32836198057744
6.178336768,1.0003467799131474,-102.47584559158815
6.180622848,1.0004119470189181,-102.62443879298957
6.18290944,1.000451865877076,-102.77379605295103
6.18519552,1.0004639341967672,-102.92355891149784
6.187482112,1.000447561357392,-103.07324922811937
6.189768704,1.0004034701957005,-103.22255182892411
6.192054784,1.000334629647603,-103.37108629476305
6.194341376,1.0002454758474075,-103.51844204169115
6.196627456,1.0001414070021721,-103.66437738458936
6.198914048,1.000029292079018,-103.80877096589153
6.201200128,0.9999160512494877,-103.95154199695094
6.20348672,0.9998089416585028,-104.09272737063647
6.205773312,0.9997147222948348,-104.2324676774481
6.208059392,0.9996394815146702,-104.37097793686273
6.210345984,0.9995877736266048,-104.50854442753682
6.212632064,0.9995631616539623,-104.64558760869905
6.214918656,0.9995669821357817,-104.78248222694845
6.217204736,0.9995992104460476,-104.91965412426615
6.219491328,0.9996575964614218,-105.05748666586531
6.221777408,0.9997386802841848,-105.19635582447485
6.224064,0.9998371642643292,-105.33652573008753
6.226350592,0.9999467437952101,-105.47824988096525
6.228636672,1.000060655061866,-105.62151669108395
6.230923264,1.0001715504962103,-105.76652659214045
6.233209344,1.0002725590304165,-105.91304929374466
6.235495936,1.0003569613448458,-106.0609213454768
6.237782016,1.0004196567019648,-106.20989210281479
6.240068608,1.0004565552973719,-106.35958085044862
6.2423552,1.0004653963106502,-106.50960402352295
6.24464128,1.0004455664343628,-106.65957502713086
6.246927872,1.0003983829071104,-106.80906229286981
6.249213952,1.0003265364124783,-106.9576721965203
6.251500544,1.000235069153804,-107.10514695522417
6.253786624,1.0001292987092925,-107.25116977223063
6.256073216,1.0000162600901945,-107.39559618255178
6.258359296,0.999902833370671,-107.53841235383034
6.260645888,0.9997964446838647,-107.67964243243367
6.26293248,0.9997036754256502,-107.81942251275831
6.26521856,0.9996305528735574,-107.95798205807104
6.267505152,0.9995816874450772,-108.09569864135608
6.269791232,0.9995601279766232,-108.23288283657614
6.272077824,0.9995673339986083,-108.36997209924378
6.274363904,0.9996028309857409,-108.50737136238556
6.276650496,0.9996643541624763,-108.64544776484676
6.278937088,0.9997480038941395,-108.78464411467215
6.281223168,0.9998485204782515,-108.92518602133472
6.28350976,0.9999595515955577,-109.06723939069724
6.28579584,1.0000739367298672,-109.21097047349616
6.288082432,1.0001844837707434,-109.35632284212626
6.290368512,1.0002842309689255,-109.50322142217433
6.292655104,1.0003667948807764,-109.65145647077756
6.294941184,1.000426932217135,-109.80072727844275
6.297227776,1.0004608790474432,-109.950668340869
6.299514368,1.00046646525223,-110.10093815536165
6.301800448,1.000443234222102,-110.25106812731636
6.30408704,1.0003928948645813,-110.40068216224925
6.30637312,1.0003182654169085,-110.54938862608229
6.308659712,1.0002243142327814,-110.69686997431575
6.310945792,1.0001169389919498,-110.84291546582865
6.313232384,1.000002946083701,-110.98733742606186
6.315518464,0.9998896162702559,-111.13012323378514
6.317805056,0.9997839156536735,-111.27128503593963
6.320091648,0.9996927526739786,-111.41107461661426
6.322377728,0.9996219134439916,-111.54966360596886
6.32466432,0.999575846293979,-111.68743008527348
6.3269504,0.9995574480065268,-111.82467469221979
6.329236992,0.9995680824806834,-111.96189159017264
6.331523072,0.9996068211775597,-112.09949304860592
6.333809664,0.9996714041566992,-112.2378396939964
6.336096256,0.9997575635488948,-112.37729219301717
6.338382336,0.9998600431910772,-112.51811262164787
6.340668928,0.9999722556519614,-112.6605007131293
6.342955008,1.0000871114668015,-112.8045246246535
6.3452416,1.0001972519360023,-112.95023565686013
6.34752768,1.000295705949701,-113.09743531668224
6.349814272,1.000376357368488,-113.24593545566555
6.352100352,1.0004339944891565,-113.39545233889459
6.354386944,1.0004648718685352,-113.54562305754365
6.356673536,1.0004670383090528,-113.69604970380676
6.358959616,1.0004405954408928,-113.84626501160051
6.361246208,1.0003869638624503,-113.99596568814415
6.363532288,1.0003096346286795,-114.14467686244375
6.36581888,1.0002135166259036,-114.2921371380243
6.36810496,1.0001044116880282,-114.43809311362585
6.370391552,0.9999896812533104,-114.58241468395255
6.372678144,0.9998762423733473,-114.72515144017814
6.374964224,0.9997715859591871,-114.8662398920929
6.377250816,0.999681997841711,-115.00594207757452
6.379536896,0.9996135701348945,-115.14448728319107
6.381823488,0.9995703509092726,-115.28221657224749
6.384109568,0.9995552338254872,-115.41954547308757
6.38639616,0.9995690603970774,-115.55685529707111
6.38868224,0.9996111235335673,-115.69457895487336
6.390968832,0.9996787179923957,-115.83311601970318
6.393255424,0.9997675415620079,-115.9727181842322
6.395541504,0.999871913126494,-116.11381436995624
6.397828096,0.9999852626982055,-116.25646956560885
6.400114176,1.0001004195233205,-116.40078898043974
6.402400768,1.0002099686810073,-116.54670632599449
6.404686848,1.0003072723849304,-116.69415813551414
6.40697344,1.0003858167408521,-116.84292622256481
6.409260032,1.0004407198329117,-116.99262331935941
6.411546112,1.0004685470005235,-117.1429301302159
6.413832704,1.0004675287704228,-117.29343064844926
6.416118784,1.0004376448919157,-117.44371146632452
6.418405376,1.0003808342357716,-117.59339063823106
6.420691456,1.0003007058169668,-117.74203244575705
6.422978048,1.000202263749335,-117.88941672728161
6.425264128,1.000091774468127,-118.03524944734016
6.42755072,0.9999762227198633,-118.17949570551076
6.429837312,0.9998630262019397,-118.32201173821525
6.432123392,0.9997592839977715,-118.46299084215887
6.434409984,0.9996715220433612,-118.60256553801456
6.436696064,0.9996053512195223,-118.74103657286896
6.438982656,0.9995651213117325,-118.87869255956285
6.441268736,0.9995531773515848,-119.01601606168968
6.443555328,0.9995705163421905,-119.15329941209922
6.44584192,0.9996157818008711,-119.29110556238079
6.448128,0.9996863482839621,-119.42973426804926
6.450414592,0.9997776037062818,-119.56959212215689
6.452700672,0.9998838346848792,-119.71081177766489
6.454987264,0.9999983151848912,-119.85366547784166
6.457273344,1.0001137505484412,-119.99816965889192
6.459559936,1.0002227222820879,-120.14437299590537
6.461846016,1.000318617730317,-120.29199360349966
6.464132608,1.0003948592645668,-120.4408697424204
6.4664192,1.0004471264451584,-120.59070300955496
6.46870528,1.0004718697125536,-120.74109031657073
6.470991872,1.0004674682452732,-120.89164977893194
6.473277952,1.0004343636216484,-121.04187920927022
6.475564544,1.0003743686298303,-121.1914607501398
6.477850624,1.0002914793790965,-121.34001706063303
6.480137216,1.0001910032234664,-121.48723184384914
6.482423296,1.0000789731228301,-121.63291018393183
6.484709888,0.9999628998115587,-121.7769283135158
6.48699648,0.9998499059359238,-121.91922744224709
6.48928256,0.9997470984592555,-122.06002707454853
6.491569152,0.9996611310332937,-122.19942738443069
6.493855232,0.9995975077250686,-122.3377129203749
6.496141824,0.9995601780194143,-122.47530083246625
6.498427904,0.9995516447913576,-122.61249560772774
6.500714496,0.9995722828671064,-122.7498229794291
6.503001088,0.9996208406723797,-122.88765636895816
6.505287168,0.9996943088301065,-123.02630316213401
6.50757376,0.9997881496468928,-123.1662457239975
6.50985984,0.9998960172722985,-123.30761080141534
6.512146432,1.000011503189317,-123.4505891854548
6.514432512,1.0001270306354109,-123.59528985515865
6.516719104,1.0002354052258893,-123.74159887027467
6.519005184,1.0003297095356645,-123.88935831352718
6.521291776,1.000403850108052,-124.03832812808038
6.523578368,1.0004533217775398,-124.18823347415339
6.525864448,1.0004748607427496,-124.33864445669671
6.52815104,1.0004671129159204,-124.48915446287388
6.53043712,1.0004305530142605,-124.63931143724936
6.532723712,1.0003675087136559,-124.78876877991253
6.535009792,1.0002819243634469,-124.93711938436387
6.537296384,1.0001792370861113,-125.08409909763299
6.539582976,1.0000659861807886,-125.22952756888841
6.541869056,0.9999492731961052,-125.37328004713099
6.544155648,0.9998365808420442,-125.51535379881224
6.546441728,0.9997349894895478,-125.65586771668333
6.54872832,0.9996509570470307,-125.79501399098011
6.5510144,0.9995898949857658,-125.93309378176616
6.553300992,0.9995556030442405,-126.07048336823597
6.555587072,0.9995502689160117,-126.20759354776386
6.557873664,0.9995743365269494,-126.34484258079746
6.560160256,0.9996262780954259,-126.48258204172356
6.562446336,0.9997026484337885,-126.62130378131086
6.564732928,0.9997987602379927,-126.76125112026146
6.567019008,0.9999085037900002,-126.90269443567882
6.5693056,1.0000248472224675,-127.04579960941994
6.57159168,1.0001404284131028,-127.19056787049269
6.573878272,1.0002480345171452,-127.33694254551756
6.576164864,1.0003407271413118,-127.48478579921643
6.578450944,1.000412621589659,-127.63382606261995
6.580737536,1.0004592309439564,-127.78367952748027
6.583023616,1.0004775206019278,-127.93402721372786
6.585310208,1.0004662772584907,-128.08444604688356
6.587596288,1.0004264576344322,-128.23447309753388
6.58988288,1.0003602200792667,-128.38372135517125
6.59216896,1.000271987414016,-128.53182233059275
6.594455552,1.0001673174299477,-128.67855070656532
6.596742144,1.0000527770470329,-128.82361612188618
6.599028224,0.9999356951214081,-128.9670422948602
6.601314816,0.9998232965938935,-129.10879213828483
6.603600896,0.9997229508569145,-129.2490291979005
6.605887488,0.9996409738530244,-129.38785346910007
6.608173568,0.999582504477391,-129.52569717886252
6.61046016,0.9995513271666464,-129.66285365704863
6.612746752,0.9995493609218794,-129.7997546880524
6.615032832,0.9995768515647774,-129.9368658342757
6.617319424,0.9996320081338205,-130.07454016193725
6.619605504,0.9997113216107963,-130.21319091015047
6.621892096,0.9998097242813236,-130.35316000127582
6.624178176,0.9999211415451246,-130.49461512510194
6.626464768,1.0000382888630956,-130.6377072946157
6.628750848,1.0001538933406255,-130.78250678718044
6.63103744,1.0002605797033466,-130.92894483289746
6.633324032,1.0003516187656778,-131.0767975987395
6.635610112,1.000421139433206,-131.22580050266683
6.637896704,1.0004648155389462,-131.37558967803128
6.640182784,1.000479818671577,-131.52580227954388
6.642469376,1.0004652229332747,-131.6760500117046
6.644755456,1.0004219611114518,-131.8258691008973
6.647042048,1.000352700864051,-131.97483444961566
6.649328128,1.0002618309219917,-132.1226330842715
6.65161472,1.000155182987918,-132.26902334403735
6.653901312,1.000039396033789,-132.41375239744053
6.656187392,0.9999218494926919,-132.55681418423828
6.658473984,0.9998100352017513,-132.6981598921556
6.660760064,0.9997109868998832,-132.83797475108727
6.663046656,0.9996310310318528,-132.9764797534716
6.665332736,0.9995753392827026,-133.1139893873388
6.667619328,0.9995473401139058,-133.25086549007906
6.66990592,0.999548839058307,-133.38755001386227
6.672192,0.9995796745480088,-133.52443018706077
6.674478592,0.9996381041661857,-133.66200220459928
6.676764672,0.9997202739055583,-133.80054293893542
6.679051264,0.9998209954279612,-133.94043602233953
6.681337344,0.999933854927164,-134.08186847660872
6.683623936,1.0000518579939754,-134.22496027856408
6.685910016,1.000167296855756,-134.36972379943586
6.688196608,1.0002729866714701,-134.51609409461588
6.6904832,1.0003622107064722,-134.66387797860273
6.69276928,1.0004293196864023,-134.81280463017296
6.695055872,1.000470008055031,-134.96250313551008
6.697341952,1.000481713229251,-135.1125593382949
6.699628544,1.0004636924461492,-135.26255784750816
6.701914624,1.000417063900553,-135.41207809613562
6.704201216,1.0003447273125263,-135.56072664282942
6.706487808,1.0002512461082627,-135.70814306488575
6.708773888,1.0001426725576237,-135.85410266425495
6.71106048,1.0000257959703047,-135.9984341139678
6.71334656,0.9999080184622782,-136.14098777304102
6.715633152,0.9997967980263185,-136.28192116762742
6.717919232,0.9996992105922821,-136.42131333923516
6.720205824,0.9996214512003828,-136.55939310642353
6.722491904,0.9995685541319214,-136.69650891075884
6.724778496,0.9995437597512742,-136.83308493633226
6.727065088,0.9995486112425612,-136.96947709243813
6.729351168,0.9995830392921178,-137.10612860601995
6.73163776,0.9996446100386019,-137.24349296197275
6.73392384,0.9997296352788582,-137.3818756488375
6.736210432,0.999832551145427,-137.5216541223714
6.738496512,0.9999470311459412,-137.66296671256953
6.740783104,1.000065621453962,-137.80598744048245
6.743069696,1.0001808348159977,-137.95067952898407
6.745355776,1.0002855477904042,-138.0969973962979
6.747642368,1.0003728627704727,-138.244664512407
6.749928448,1.0004374281462254,-138.39343956888808
6.75221504,1.0004749996355178,-138.5429379485103
6.75450112,1.0004832991658474,-138.69274851237924
6.756787712,1.0004618452713026,-138.84243747399125
6.759073792,1.0004117383705846,-138.99161791131044
6.761360384,1.0003364065500906,-139.1398945774138
6.763646976,1.0002404529889655,-139.28688637186505
6.765933056,1.0001300111655733,-139.43235947581914
6.768219648,1.0000120917748032,-139.5761882825521
6.770505728,0.9998940944828595,-139.7182628158881
6.77279232,0.9997836110276451,-139.85866651218893
6.7750784,0.9996875718432866,-139.99758865408106
6.777364992,0.9996120570032938,-140.13519024381566
6.779651584,0.9995620069329904,-140.27190214018796
6.781937664,0.9995404763117423,-140.4080686680264
6.784224256,0.9995488545358249,-140.54411499879745
6.786510336,0.9995866688434676,-140.68049842964112
6.788796928,0.9996515504193221,-140.81761508125845
6.791083008,0.9997393236545665,-140.9558102420614
6.7933696,0.9998445082468425,-141.09538132674996
6.79565568,0.9999603192035508,-141.2365836297575
6.797942272,1.0000795225115342,-141.37946545166994
6.800228864,1.000194437367357,-141.52404089578064
6.802514944,1.0002978850972069,-141.6701769876644
6.804801536,1.0003832820668837,-141.81769474401403
6.807087616,1.0004452153122831,-141.96622610856176
6.809374208,1.000479716467108,-142.11545654696135
6.811660288,1.0004845487695617,-142.26498074829794
6.81394688,1.0004595341866027,-142.41434244267586
6.81623296,1.000406108990086,-142.5631212216876
6.818519552,1.0003277160693829,-142.7109135995494
6.820806144,1.000229265726465,-142.85742345864682
6.823092224,1.000116962259425,-143.00236259873904
6.825378816,0.99999815320046,-143.14562671998084
6.827664896,0.9998801130984951,-143.28716860364494
6.829951488,0.9997703670784875,-143.4270030028258
6.832237568,0.9996759873189124,-143.56537160356268
6.83452416,0.9996029009888217,-143.7024665359571
6.836810752,0.9995557069950755,-143.83868212891232
6.839096832,0.9995376076632366,-143.97442117983772
6.841383424,0.9995494975227641,-144.11007486979693
6.843669504,0.9995908333688532,-144.24613603541158
6.845956096,0.9996589279868869,-144.38291799555753
6.848242176,0.9997495078290564,-144.52086133860874
6.850528768,0.9998567513443205,-144.66025062441562
6.852814848,0.999973895944169,-144.80122885131277
6.85510144,1.0000935961979376,-144.94393902661392
6.857388032,1.0002080896497227,-145.088302312468
6.859674112,1.0003102733508733,-145.2342669828964
6.861960704,1.0003936350015499,-145.3815437793833
6.864246784,1.0004527875049485,-145.52983997460947
6.866533376,1.0004840474310703,-145.67876137779373
6.868819456,1.000485394444921,-145.82792177604384
6.871106048,1.0004568268354939,-145.9768687866842
6.87339264,1.0004000431541065,-146.12518155518336
6.87567872,1.0003185990159849,-146.27243810936326
6.877965312,1.0002177660003646,-146.41841749080143
6.880251392,1.000103743176107,-146.56278054175897
6.882537984,0.9999840044368884,-146.70541004680572
6.884824064,0.9998659603143686,-146.8463131901905
6.887110656,0.9997571377000186,-146.9855582083363
6.889396736,0.9996645428913873,-147.12331953238123
6.891683328,0.9995938422074229,-147.25982697427028
6.89396992,0.9995497231780527,-147.39552556611864
6.896256,0.9995350146789843,-147.5307712321659
6.898542592,0.9995505160789553,-147.66602460385423
6.900828672,0.9995953775523723,-147.8016593322994
6.903115264,0.9996666938458808,-147.93814670379552
6.905401344,0.9997599735266884,-148.07578315066954
