freq,mag,phase
6.0,1.0000946216025113,-11.964824098133061
6.021857792,1.0000933542898887,-12.678246425178378
6.043716096,1.0000875918279784,-13.391739561802671
6.065573888,1.0000787625677838,-14.10531014564648
6.08743168,1.0000669626597143,-14.818850872295815
6.109289472,1.0000528217487465,-15.532427308372554
6.131147776,1.0000367569135384,-16.24595786703776
6.153005568,1.0000194003961695,-16.959430264453264
6.17486336,1.0000012029561505,-17.672804370276875
6.196721152,0.9999828074399247,-18.386179698914635
6.218579456,0.9999646610747972,-19.09945474253994
6.240437248,0.9999476711922352,-19.812678304524304
6.26229504,0.9999321290567498,-20.525848133902674
6.284152832,0.9999189226265488,-21.23901507112323
6.306011136,0.9999080406053095,-21.95218788596974
6.327868928,0.999900183996958,-22.66535986731186
6.34972672,0.9998955407902185,-23.378595750916
6.371584512,0.9998942008299763,-24.09195941360292
6.393442816,0.9998962832427893,-24.805399921415052
6.415300608,0.9999016527268314,-25.519041648962475
6.4371584,0.9999103140181075,-26.232884183005854
6.459016192,0.9999216309515883,-26.946985592302433
6.480874496,0.9999354945109798,-27.66129847844456
6.502732288,0.9999516104793242,-28.37589240461042
6.52459008,0.9999691213574531,-29.090818099218644
6.546447872,0.999987567785626,-29.80604978639712
6.568306176,1.0000063432605573,-30.521600509673398
6.590163968,1.0000247786901184,-31.237487141276958
6.61202176,1.0000422629787964,-31.953696229182622
6.633879552,1.0000583175561357,-32.67020618845655
6.655737856,1.0000722402402236,-33.386975323894276
6.677595648,1.0000837889419527,-34.10403890445614
6.69945344,1.0000922880255492,-34.821313363548406
6.721311232,1.0000975237152983,-35.53883293966361
6.743169536,1.000099493099224,-36.25647575844346
6.765027328,1.0000979677054604,-36.97424389224036
6.78688512,1.0000931113692988,-37.692143298477866
6.808743424,1.00008491408336,-38.41008625499299
6.830601216,1.0000738200738286,-39.128051659320825
6.852459008,1.0000599680834925,-39.84604739556082
6.8743168,1.0000441758176186,-40.56397027822273
6.896175104,1.0000266656877623,-41.28187521300917
6.918032896,1.0000079071065615,-41.99970827632822
6.939890688,0.9999890136670031,-42.71747386369947
6.96174848,0.9999701064641122,-43.43517403006197
6.983606784,0.9999519553685944,-44.15282067572307
7.005464576,0.999935487218747,-44.87035102573116
7.027322368,0.9999209126531187,-45.58790771496575
7.04918016,0.9999088472646576,-46.30544141880328
7.071038464,0.999899432252889,-47.02299135025835
7.092896256,0.9998935745633628,-47.74058940835133
7.114754048,0.9998909437408847,-48.45824745038653
7.13661184,0.9998919242394086,-49.17605038284866
7.158470144,0.9998963197476131,-49.893997912114294
7.180327936,0.9999040624421075,-50.61212845711078
7.202185728,0.9999148826902183,-51.330479715748645
7.22404352,0.9999285479422657,-52.04912180510756
7.245901824,0.9999443414646947,-52.76801282886728
7.267759616,0.9999620847714353,-53.48722781753817
7.289617408,0.9999808196685339,-54.206732773438866
7.3114752,1.000000095132795,-54.926581912508524
7.333333504,1.0000194112370753,-55.64678268745386
7.355191296,1.000038001612148,-56.367285649135695
7.377049088,1.0000550672020503,-57.08812254627778
7.39890688,1.0000704298273864,-57.809233030453086
7.420765184,1.0000831641568395,-58.530646337806004
7.442622976,1.0000931229935357,-59.252266250759355
7.464480768,1.0000997853576559,-59.974118834042
7.48633856,1.0001030468485277,-60.69617494964522
7.508196864,1.000102729938911,-61.41837238329275
7.530054656,1.0000989380275729,-62.14063947082141
7.551912448,1.0000916383347642,-62.86300674595953
7.57377024,1.0000810727560177,-63.58542700867229
7.595628544,1.0000676843198397,-64.30782019589513
7.617486336,1.000051982243728,-65.03019800326446
7.639344128,1.000034197410014,-65.75250401078365
7.661202432,1.0000152099845265,-66.47477377471058
7.683060224,0.9999955616738282,-67.19692828792518
7.704918016,0.9999758632501631,-67.91902719377711
7.726775808,0.9999568108048911,-68.64107275562075
7.748634112,0.9999390048269088,-69.3630180262214
7.770491904,0.9999230228003243,-70.08492781730891
7.792349696,0.9999094801577005,-70.80680200401787
7.814207488,0.9998989022231525,-71.52867161730605
7.836065792,0.9998913690035678,-72.25053460033591
7.857923584,0.9998873640884842,-72.9725069309664
7.879781376,0.9998871223940652,-73.69456066832964
7.901639168,0.9998903586586755,-74.4167519548966
7.923497472,0.99989718412034,-75.13913814970836
7.945355264,0.9999072420224977,-75.86170762727944
7.967213056,0.9999204288801783,-76.58454344689319
7.989070848,0.9999360427236366,-77.30766124652014
8.010929152,0.999953741820112,-78.03107821563526
8.032786944,0.9999730065909683,-78.75477433154336
8.054644736,0.9999929720101662,-79.47882542473928
8.076502528,1.0000131435758361,-80.20320158046272
8.098360832,1.0000328277065411,-80.92788459619956
8.120218624,1.0000512466945177,-81.65296959275096
8.142076416,1.0000679041605098,-82.37827861403842
8.163934208,1.0000821643632112,-83.10392747072399
8.185792512,1.0000937168244068,-83.8298063242658
8.207650304,1.0001018858906638,-84.55591511066545
8.229508096,1.0001066256043312,-85.28221456722346
8.251365888,1.0001076417495531,-86.00867024561322
8.273224192,1.0001050222768817,-86.7352250131678
8.295081984,1.000098752731615,-87.4618506920045
8.316939776,1.000088998574247,-88.18852719043873
8.338797568,1.0000759993684147,-88.91522777776439
8.360655872,1.0000605437465218,-89.64187037713815
8.382513664,1.0000427343688443,-90.36847768697866
8.404371456,1.0000234240157093,-91.09502204130656
8.42622976,1.00000304096516,-91.8214484578356
8.448087552,0.9999825323302344,-92.54777534431503
8.469945344,0.9999622941223278,-93.27401538807916
8.491803136,0.9999431786165675,-94.00017442281319
8.51366144,0.999925778880822,-94.72625623697755
8.535519232,0.9999106077849945,-95.45226359491086
8.557377024,0.9998982725980974,-96.17825926993868
8.579234816,0.9998891685352979,-96.90424569500333
8.60109312,0.9998837000346975,-97.63028855231751
8.6229504,0.9998819031258485,-98.35638886232942
8.644808704,0.9998838759343162,-99.08259917502374
8.666667008,0.9998895731719032,-99.80899644782514
8.688524288,0.9998988921171509,-100.53555128796525
8.710382592,0.9999115190875285,-101.26238033365983
8.732240896,0.9999268970754087,-101.98943152238849
8.754098176,0.9999446239842718,-102.71677350879358
8.77595648,0.9999642237930497,-103.44443485868268
8.79781376,0.9999847802951464,-104.17241524580797
8.819672064,1.0000058984267215,-104.90072848923913
8.841530368,1.00002673226369,-105.62935083399017
8.863387648,1.0000465302973776,-106.35833730437467
8.885245952,1.0000647529275744,-107.08762957909153
8.907104256,1.000080659339572,-107.81717180315552
8.928961536,1.0000939068125942,-108.54702398492041
8.95081984,1.0001038521149304,-109.27708028829869
8.97267712,1.0001102495106293,-110.00733895217199
8.994535424,1.0001128312640704,-110.73777160545859
9.016393728,1.0001114984865551,-111.4683275283433
9.038251008,1.000106408244561,-112.1989487823857
9.060109312,1.000097570301629,-112.92961210905762
9.081967616,1.0000852930111066,-113.66024641764785
9.103824896,1.0000699571587457,-114.39089174042586
9.1256832,1.0000522921664372,-115.12144388781962
9.14754048,1.0000326039553795,-115.851894145605
9.169398784,1.000011508609014,-116.58227255153193
9.191257088,0.9999899463132661,-117.31251690612802
9.213114368,0.9999685205714826,-118.04265122677916
9.234972672,0.9999480360605272,-118.77264829205203
9.256830976,0.9999289450738539,-119.5025588743711
9.278688256,0.9999120843704777,-120.2324003565082
9.30054656,0.9998979691446058,-120.9621445655392
9.322404864,0.9998870641427654,-121.69187221760308
9.344262144,0.9998797939951717,-122.4215909343415
9.366120448,0.9998763224564474,-123.15138560636358
9.387977728,0.9998768276925384,-123.88125160192831
9.409836032,0.9998813429631198,-124.61123419676169
9.431694336,0.9998896683163556,-125.34140560452093
9.453551616,0.9999014737897621,-126.0717614091152
9.47540992,0.9999165328047411,-126.80236532824641
9.497268224,0.9999343443425232,-127.53323090383482
9.519125504,0.9999541967980297,-128.26440854102037
9.540983808,0.9999754684117578,-128.9958907072067
9.562841088,0.9999975518249719,-129.72769652975606
9.584699392,1.0000195932459433,-130.45983647325443
9.606557696,1.000040963986472,-131.1922981612047
9.628414976,1.0000608605048356,-131.92508310923884
9.65027328,1.0000786497550351,-132.65815734787566
9.672131584,1.0000937657902085,-133.39149176528588
9.693988864,1.0001056698745305,-134.12506899018396
9.715847168,1.0001139480477947,-134.85885425575552
9.737704448,1.0001182888643556,-135.59278524194468
9.759562752,1.0001185319185035,-136.32686571655816
9.781421056,1.0001148094721726,-137.06100522202044
9.803278336,1.0001069786985557,-137.79516919268357
9.82513664,1.00009548422885,-138.52933823467114
9.846994944,1.000080651977859,-139.2634702269871
9.868852224,1.0000629620615464,-139.99750163984197
9.890710528,1.000042904335391,-140.7314470777464
9.912567808,1.0000212938051918,-141.46525666090113
9.934426112,0.9999987472165004,-142.19893739116026
9.956284416,0.9999759338547785,-142.93243767763448
9.978141696,0.9999538116053379,-143.66580819742242
10.0,0.9999329343245593,-144.39905414886178
10.021858304,0.9999141897300268,-145.1321557380571
10.043715584,0.9998980649254219,-145.86516326312662
10.065573888,0.9998850500922808,-146.59812073659484
10.087432192,0.9998757855263586,-147.33102693818708
10.109289472,0.9998704391845704,-148.06393924465462
10.131147776,0.9998692796379242,-148.79690104777296
10.153005056,0.9998722648123106,-149.5299598223333
10.17486336,0.9998793354045822,-150.26314628527965
10.196721664,0.9998904343433769,-150.99651284197498
10.218578944,0.999904969316035,-151.7300852733093
10.240437248,0.9999227139359905,-152.46391762525292
10.262295552,0.9999428161196049,-153.1980325976027
10.284152832,0.9999648171613478,-153.93243257055724
10.306011136,0.9999879400603321,-154.6671494546451
10.327868416,1.000011314432505,-155.4021889131253
10.34972672,1.00003434571363,-156.1375464945035
10.371585024,1.000056084348574,-156.87322863449683
10.393442304,1.0000760007290725,-157.60919255309744
10.415300608,1.0000932014895973,-158.34543107415652
10.437158912,1.0001073051622547,-159.08191540808986
10.459016192,1.0001177115014415,-159.81862388490734
10.480874496,1.000124118031026,-160.55548056205288
10.502731776,1.0001262430907971,-161.29244365884696
10.52459008,1.00012405352818,-162.02951602390576
10.546448384,1.0001176665574472,-162.7665984766316
10.568305664,1.000107059755569,-163.50365545852642
10.590163968,1.0000927782293996,-164.24066174138628
10.612022272,1.0000752052618136,-164.9775870918798
10.633879552,1.000054890121805,-165.71434967395183
10.655737856,1.0000326247295726,-166.4509875953426
10.677595136,1.0000089282488862,-167.18748298005875
10.69945344,0.9999847360243516,-167.92374166709246
10.721311744,0.9999608565756163,-168.65984414265253
10.743169024,0.9999380477883277,-169.39576737522614
10.765027328,0.9999170732973525,-170.13150818295955
10.786885632,0.999898595940465,-170.86712951634775
10.808742912,0.9998832475749441,-171.60262263555396
10.830601216,0.9998716813386456,-172.3380306902903
10.85245952,0.999864110108887,-173.07341098953592
10.8743168,0.9998609437524334,-173.8087941416008
10.896175104,0.9998622069340706,-174.54422757055096
10.918032384,0.9998679275465566,-175.27972858123022
10.939890688,0.9998779725599859,-176.0153917512244
10.961748992,0.9998919735436842,-176.75125085318348
10.983606272,0.9999093594125634,-177.48730386073854
11.005464576,0.9999297838409568,-178.2236404802861
11.02732288,0.9999524549127358,-178.96024404586888
11.04918016,0.9999766557900789,-179.69715880843907
11.071038464,1.0000016748862217,179.56564293306553
11.092895744,1.000026425902652,178.828093274062
11.114754048,1.0000503757243568,178.0902552077335
11.136612352,1.0000726099984427,177.35211453034648
11.158469632,1.0000923423658112,176.6136889883305
11.180327936,1.0001089275422863,175.87503591844523
11.20218624,1.000121846177946,175.13615142407275
11.22404352,1.0001305688324427,174.39712488247113
11.245901824,1.000134926069414,173.65795531424104
11.267759104,1.000134652209982,172.91872660024805
11.289617408,1.0001296759625964,172.17947099638573
11.311475712,1.0001202806100602,171.44022272251257
11.333332992,1.0001067062469093,170.70105197799182
11.355191296,1.0000894650220506,169.96200863741848
11.3770496,1.0000689753158167,169.2231126478917
11.39890688,1.0000459397203019,168.48437697807745
11.420765184,1.0000210504152214,167.74585650252257
11.442622464,0.9999952470012539,167.00755738196239
11.464480768,0.9999694633629387,166.26949618165554
11.486339072,0.9999443941712461,165.531640141288
11.508196352,0.9999209312563593,164.79400870670042
11.530054656,0.9998998358692116,164.05656677266444
11.55191296,0.9998817891054955,163.31929804091885
11.57377024,0.9998675026212348,162.58216943773715
11.595628544,0.9998574266657762,161.8451199694449
11.617486848,0.999851859077293,161.10812079585807
11.639344128,0.9998511020435279,160.37111322283297
11.661202432,0.999855035753793,159.63406995207177
11.683059712,0.9998637872018858,158.8969174591114
11.704918016,0.9998770169967346,158.1596278800053
11.72677632,0.9998941196878741,157.42213807352127
11.7486336,0.9999146517857722,156.68441773513433
11.770491904,0.9999381066871357,155.9464520114939
11.792350208,0.9999635471364956,155.20818683287783
11.814207488,0.9999901719815234,154.46962302754773
11.836065792,1.0000171528577266,153.73074343806942
11.857923072,1.0000433937871338,152.9915570214974
11.879781376,1.000068310914025,152.25206824083676
11.90163968,1.0000909898387862,151.51231098107147
11.92349696,1.0001103966937077,150.7723082425567
11.945355264,1.0001262684457506,150.0320732467236
11.967213568,1.0001378138299315,149.29168500913977
11.989070848,1.000144737298152,148.55115077612044
12.010929152,1.000146698308819,147.8105349786575
12.032786432,1.000143717502116,147.06992367862128
12.054644736,1.0001357707146326,146.32933559866663
12.07650304,1.0001230918574735,145.58881797928007
12.09836032,1.0001061550060562,144.84845234162606
12.120218624,1.0000854473046774,144.10824227016366
12.142076928,1.0000617220684997,143.3682440602596
12.163934208,1.0000356189957158,142.62848491288418
12.185792512,1.0000080569350023,141.8889917808137
12.207649792,0.9999799657164216,141.1497844179916
12.229508096,0.9999522322891595,140.4108370221315
12.2513664,0.9999258249245281,139.67215777011083
12.27322368,0.9999016088247918,138.93373641035438
12.295081984,0.9998804971773404,138.1955459274518
12.316940288,0.9998630431863276,137.45753410934043
12.338797568,0.9998498450908968,136.71969404426127
12.360655872,0.9998415029857769,135.98194583203536
12.382513152,0.9998382032823869,135.2442333562141
12.404371456,0.9998400707149966,134.50653489782513
12.42622976,0.9998473294140375,133.76878092632873
12.44808704,0.9998593779862027,133.03093953787706
12.469945344,0.9998761267313651,132.2929275686473
12.491803648,0.999896922781655,131.5547247023186
12.513660928,0.9999210803050027,130.81626478795562
12.535519232,0.9999478797168626,130.0775542410792
12.557377536,0.9999764789167809,129.3385528389691
12.579234816,1.0000057957956636,128.59923784240453
12.60109312,1.0000349838857965,127.85958957451312
12.6229504,1.0000630493011002,127.11964290088015
12.644808704,1.0000890000283236,126.37942253993074
12.666667008,1.0001120291744248,125.63895702582953
12.688524288,1.0001313826142746,124.8982511860685
12.710382592,1.0001462784792887,124.15735654969248
12.732240896,1.000156237234677,123.41632400529465
12.754098176,1.0001610410156112,122.67522677732889
12.77595648,1.000160247626525,121.93409342118437
12.79781376,1.0001540446156287,121.19300301595166
12.819672064,1.0001425508753576,120.45199821267087
12.841530368,1.0001261679625233,119.7111438268298
12.863387648,1.000105255289663,118.97048284697019
12.885245952,1.0000806231465715,118.23006467283851
12.907104256,1.00005309434757,117.48992895258115
12.928961536,1.000023396366646,116.75009965411847
12.95081984,0.9999926587619781,116.0105942368463
12.97267712,0.9999618565329063,115.27140461069989
12.994535424,0.9999319905426891,114.53255653136524
13.016393728,0.9999040194151436,113.79402091044733
13.038251008,0.9998788927522719,113.05577943382518
13.060109312,0.9998576028380954,112.31779718852133
13.081967616,0.9998407731076154,111.58002525369174
13.103824896,0.999828975348381,110.84243479888282
13.1256832,0.9998226343288109,110.10494562628548
13.14754048,0.9998220183918568,109.36751750570586
13.169398784,0.9998272391603522,108.63009275020212
13.191257088,0.99983807964118,107.892617095135
13.213114368,0.9998541654422275,107.1550013564303
13.234972672,0.9998751239591646,106.4172166831192
13.256830976,0.9999001928357009,105.67924106543431
13.278688256,0.9999286838367152,104.94098701343962
13.30054656,0.9999595561495197,104.20243942791664
13.322404864,0.9999918897825635,103.46359646034382
13.344262144,1.0000245883885792,102.724429803318
13.366120448,1.000056553408867,101.98493989063617
13.387977728,1.000086602601256,101.24517726593459
13.409836032,1.000114026394624,100.5050950766065
13.431694336,1.0001375011377818,99.76477756988444
13.453551616,1.0001566055574813,99.02427646666713
13.47540992,1.00017047011945,98.28361481503389
13.497268224,1.0001785995189036,97.5428414548422
13.519125504,1.000180713712839,96.80205740233157
13.540983808,1.0001767656573008,96.06129694412006
13.562841088,1.0001667118055368,95.32063622907344
13.584699392,1.0001509738427232,94.58012978726971
13.606557696,1.0001298325716572,93.83983537580762
13.628414976,1.0001041491610827,93.09982180519398
13.65027328,1.000074777891604,92.36011809715106
13.672131584,1.0000424640760563,91.62077524003308
13.693988864,1.0000083984012684,90.88179644875494
13.715847168,0.999973679911104,90.14323233229399
13.737704448,0.9999393475786409,89.40505313905575
13.759562752,0.9999067236674435,88.66726458792502
13.781421056,0.9998768273523079,87.92983251992463
13.803278336,0.9998506100891538,87.19274089555718
13.82513664,0.9998289808467621,86.45595102964961
13.846994944,0.9998128387648975,85.71939717340231
13.868852224,0.9998026148588365,84.98303304996651
13.890710528,0.9997988040543501,84.24678858993214
13.912567808,0.9998013544896996,83.51058937675789
13.934426112,0.9998105549363764,82.77439063849255
13.956284416,0.9998259415402353,82.03811944621103
13.978141696,0.9998470905268423,81.30168072450874
14.0,0.9998734301421222,80.56507214047835
