freq,mag,phase
6.0,1.0000116182735028,54.684172252452925
6.002288128,0.9999497070845261,54.52829884630687
6.004576768,0.9998915706355995,54.37328362996805
6.006864896,0.9998405714876893,54.219031309813374
6.009153536,0.999800195716295,54.06544036187559
6.011441664,0.9997728731034533,53.91229880841754
6.013729792,0.99976048742703,53.759447742354794
6.016018432,0.9997637002274735,53.606642540408494
6.01830656,0.9997823375227259,53.45364405900153
6.0205952,0.9998154147539988,53.30026173103774
6.022883328,0.9998606484398894,53.14628122895266
6.025171456,0.9999153158842509,52.991568787075906
6.027460096,0.9999757675229302,52.83598189139518
6.029748224,1.0000384513497371,52.67947759552227
6.032036864,1.0000992080466573,52.52205678890237
6.034324992,1.000154285071429,52.36376581717057
6.03661312,1.000200158997567,52.20473689738574
6.03890176,1.0002338930249086,52.04508827247634
6.041189888,1.0002534458089556,51.88502956401144
6.043478016,1.0002574070251065,51.72478633767016
6.045766656,1.0002455859284058,51.564557860629165
6.048054784,1.0002187679833197,51.40460719290193
6.050343424,1.0001785552165794,51.245097769569355
6.052631552,1.00012754818607,51.08622424220672
6.05491968,1.0000688353142255,50.92814589540039
6.05720832,1.000006260286818,50.77089330735734
6.059496448,0.9999437353174808,50.614542803813364
6.061785088,0.9998852097726135,50.45905163265872
6.064073216,0.9998344106338711,50.304315253632105
6.066361344,0.9997944828077248,50.15019815699411
6.068649984,0.999768002152873,49.9965648799898
6.070938112,0.9997567875756442,49.843181085118204
6.073226752,0.9997614422127002,49.6898194614434
6.07551488,0.9997817586536774,49.53624726693369
6.077803008,0.9998163128241797,49.38226869592581
6.080091648,0.9998631578282131,49.22764589802927
6.082379776,0.9999191697618022,49.07227804315956
6.084668416,0.999980895793328,48.91601777762595
6.086956544,1.0000443498494413,48.75881454347683
6.089244672,1.0001056360280423,48.60068756125792
6.091533312,1.0001608363341645,48.44167537088012
6.09382144,1.000206295631535,48.2819146266007
6.09611008,1.0002393302806913,48.121567854338345
6.098398208,1.0002577298978075,47.9607942597957
6.100686336,1.0002604293805701,47.79984493296225
6.102974976,1.0002470923111346,47.63894158717043
6.105263104,1.000218608516821,47.47831223278135
6.107551232,1.0001768194585379,47.318163850977804
6.109839872,1.0001242614425725,47.15866926394801
6.112128,1.000064261574991,46.99997236515001
6.11441664,1.0000006654550535,46.842140939137096
6.116704768,0.9999374446293535,46.6851870571798
6.118992896,0.9998785985420139,46.529098710273665
6.121281536,0.9998278875432899,46.37379184650198
6.123569664,0.9997885883211055,46.219086298983996
6.125858304,0.9997631452850511,46.064860385297656
6.128146432,0.9997530523618701,45.910825692938566
6.13043456,0.9997591679504633,45.75680877573159
6.1327232,0.9997810207953451,45.602560250193356
6.135011328,0.9998172646014147,45.44786471055782
6.137299968,0.9998656689645079,45.2925255676004
6.139588096,0.9999230735476868,45.136376439100545
6.141876224,0.9999859708584626,44.979338368255696
6.144164864,1.0000502790435424,44.821339767444535
6.146452992,1.000111964080722,44.66239581565638
6.148741632,1.0001671922521227,44.50257470694994
6.15102976,1.0002123197078583,44.34198327678258
6.153317888,1.000244631404259,44.180806371711704
6.155606528,1.0002620072940258,44.0192300129884
6.157894656,1.0002633311306834,43.85747617843262
6.160183296,1.0002484419721978,43.69579635858402
6.162471424,1.0002183297903584,43.53439539985711
6.164759552,1.0001749378271447,43.37351426482359
6.167048192,1.0001208551109808,43.21328295454695
6.16933632,1.0000595922553608,43.05387130728761
6.17162496,0.9999950287773005,42.89535086114366
6.173913088,0.999931171431865,42.73771383807128
6.176201216,0.9998720835069778,42.580938240499
6.178489856,0.9998215530981276,42.424931384324196
6.180777984,0.9997828053390456,42.26954089557494
6.183066112,0.9997582470223352,42.11457281285419
6.185354752,0.9997494406198746,41.95982953755031
6.18764288,0.9997570679447748,41.8050606857252
6.18993152,0.9997804677264135,41.650014065137114
6.192219648,0.9998183556333469,41.49451219470492
6.194507776,0.9998682737783046,41.3383240152012
6.196796416,0.9999271754653005,41.181325921227376
6.199084544,0.9999911703959791,41.023376877933345
6.201373184,1.0000563165447363,40.86446383085472
6.203661312,1.0001185084069653,40.7046019526336
6.20594944,1.0001736504491026,40.54385706510456
6.20823808,1.0002184662117772,40.38233244543208
6.210526208,1.0002499912628153,40.22022037636813
6.212814848,1.0002662712619457,40.05774537699478
6.215102976,1.0002662215339524,39.89508681596062
6.217391104,1.0002497950582934,39.7325186897107
6.219679744,1.000218060352281,39.57027283875851
6.221967872,1.0001730310332522,39.408521910627755
6.224256512,1.0001174948496128,39.247485858545396
6.22654464,1.000054988509431,39.0872528714423
6.228832768,0.9999893952747496,38.92792300011156
6.231121408,0.9999249023671115,38.76951827813681
6.233409536,0.9998657045798283,38.61192742003611
6.235698176,0.9998153240713012,38.45513446189073
6.237986304,0.9997771484198772,38.29894474796105
6.240274432,0.9997535250500463,38.1431534111635
6.242563072,0.9997459470391301,37.98755802001314
6.2448512,0.9997549483733922,37.83192795924751
6.24713984,0.9997800742715146,37.6760010004314
6.249427968,0.9998195748506477,37.519582507198294
6.251716096,0.9998710672552913,37.36245459375155
6.254004736,0.9999312899621169,37.204480911508
6.256292864,0.999996412795026,37.04552320499782
6.258580992,1.0000623483660398,36.88562385912066
6.260869632,1.000124981645893,36.72474679113698
6.26315776,1.0001802331374285,36.56294132791655
6.2654464,1.0002245883651264,36.40040798386431
6.267734528,1.0002554005703206,36.23727714514746
6.270022656,1.0002704758552527,36.07376721056678
6.272311296,1.000269039592441,35.910106023470405
6.274599424,1.0002511047831995,35.74655801154622
6.276888064,1.0002177662612137,35.58332009385252
6.279176192,1.0001711097744002,35.420631753800734
6.28146432,1.0001140800474926,35.25865955196022
6.28375296,1.0000502897640131,35.097510441399
6.286041088,0.9999837556139279,34.93728095454374
6.288329728,0.9999187069271821,34.77796960453392
6.290617856,0.9998592396633784,34.61951239444978
6.292905984,0.999809122644328,34.46180745339348
6.295194624,0.9997714754462264,34.30471115305025
6.297482752,0.9997488208836205,34.14798639088158
6.299771392,0.9997425921961247,33.99145385950355
6.30205952,0.9997530632542312,33.83484530926199
6.304347648,0.9997797826804985,33.677930570903165
6.306636288,0.9998209059753693,33.5204723637172
6.308924416,0.9998739672088474,33.36229840816501
6.311213056,0.9999355236558758,33.20325243474532
6.313501184,1.000001726992246,33.043212697990796
6.315789312,1.000068502646295,32.88220257714126
6.318077952,1.0001314613256935,32.7201771277984
6.32036608,1.0001866943261177,32.557257644978236
6.322654208,1.0002306624304604,32.393572745219956
6.324942848,1.0002606198188644,32.229303800238704
6.327230976,1.0002746124194732,32.06466097792206
6.329519616,1.0002717975052406,31.899920510415473
6.331807744,1.0002523266060284,31.735260603257906
6.334095872,1.0002173676560042,31.570970778108673
6.336384512,1.0001690787759647,31.407236686762335
6.33867264,1.0001106305244996,31.24421298250108
6.34096128,1.0000455714761165,31.08206229886472
6.343249408,0.999978135525965,30.92080563228654
6.345537536,0.9999123771205307,30.760496614965728
6.347826176,0.9998527247195835,30.601047570174014
6.350114304,0.9998028753716582,30.442327562352798
6.352402944,0.9997658443635006,30.284219802748424
6.354691072,0.9997441437725793,30.126468912648125
6.3569792,0.9997391794835667,29.968890817685935
6.35926784,0.9997510683304062,29.81121788363978
6.361555968,0.9997794023024836,29.65319353833081
6.363844608,0.9998221623643679,29.49462858987351
6.366132736,0.9998767747848776,29.335279216629388
6.368420864,0.9999396773012532,29.175038826778348
6.370709504,1.0000070428042434,29.01382527559006
6.372997632,1.0000745448217419,28.85157807193145
6.375286272,1.0001379194214672,28.688310198164537
6.3775744,1.0001931356704505,28.52415660852533
6.379862528,1.0002366408221255,28.359245530964987
6.382151168,1.0002658183854705,28.193733242877258
6.384439296,1.0002787305685261,28.02787241739581
6.386727936,1.0002745453730244,27.861908272120317
6.389016064,1.0002534965494962,27.696075010818962
6.391304192,1.0002169551662365,27.5306043361886
6.393592832,1.0001671190589019,27.365706841220874
6.39588096,1.0001071216212567,27.20155433655667
6.398169088,1.0000409325835637,27.03826082708373
6.400457728,0.9999724968332955,26.875920102875448
6.402745856,0.9999062672472054,26.714475780203816
6.405034496,0.9998463883177456,26.553921729152158
6.407322624,0.9997967611121986,26.39410322339326
6.409610752,0.9997603458988731,26.23485546128511
6.411899392,0.9997396572448162,26.076006094891007
6.41418752,0.9997358555171361,25.91725970002591
6.41647616,0.9997493572561047,25.758383582047923
6.418764288,0.9997792210277165,25.599159259713794
6.421052416,0.9998235646231959,25.439360483651818
6.423341056,0.999879646571688,25.278754126481687
6.425629184,0.9999439754008247,25.11724937498823
6.427917824,1.0000123973906476,24.954701678712247
6.430205952,1.0000805731782343,24.791140669619686
6.43249408,1.0001443483027306,24.626543035292563
6.43478272,1.0001995180302017,24.461032292741226
6.437070848,1.0002427171412673,24.294772274746737
6.439359488,1.0002710012816283,24.127924026159455
6.441647616,1.0002827850199412,23.96074184703142
6.443935744,1.0002771940301998,23.793459607566948
6.446224384,1.0002546552717884,23.62630841264405
6.448512512,1.0002164194277685,23.459557550271935
6.450801152,1.0001650099743782,23.293403559813598
6.45308928,1.0001036662051328,23.12799840532574
6.455377408,1.0000361252733336,22.963489029967054
6.457666048,0.9999668043778321,22.79991894840499
6.459954176,0.9999000662949024,22.637283934135667
6.462242816,0.9998400702394773,22.475500632931958
6.464530944,0.9997906037291275,22.314479066458137
6.466819072,0.9997548281915826,22.154004720913285
6.469107712,0.9997351309909217,21.99390424450584
6.47139584,0.9997325936846548,21.833896728575557
6.473683968,0.9997475877723625,21.673748800344633
6.475972608,0.9997789269554459,21.513217694005046
6.478260736,0.9998249640739257,21.35206034511369
6.480549376,0.9998825627477924,21.190088851863848
6.482837504,0.9999482309683414,21.027187890319336
6.485125632,1.000017670730495,20.863239758321885
6.487414272,1.0000866034312836,20.698239062142136
6.4897024,1.0001507839454837,20.53221151084735
6.49199104,1.0002058501288356,20.36526061750924
6.494279168,1.000248605172819,20.197552824654274
6.496567296,1.0002761293121814,20.02927124353464
6.498855936,1.0002868182826812,19.86063061423569
6.501144064,1.000279865998351,19.6919287634635
6.503432704,1.0002557011467708,19.523365962157484
6.505720832,1.0002159610193555,19.355233426934547
6.50800896,1.0001630077675163,19.18771389774513
6.5102976,1.0001001624166392,19.0209793378422
6.512585728,1.0000314742649008,18.855131367443473
6.514874368,0.9999612224232152,18.690220871793723
6.517162496,0.9998938542675496,18.526267595389847
6.519450624,0.9998336843153994,18.363185141464584
6.521739264,0.9997844640385284,18.20084334158047
6.524027392,0.9997493702977487,18.03901967877505
6.526316032,0.9997305943318195,17.87756654107096
6.52860416,0.9997293591898728,17.716203572028725
6.530892288,0.9997457561588772,17.554651241970415
6.533180928,0.9997787508733682,17.392699649808964
6.535469056,0.9998262726808663,17.230123475038862
6.537757184,0.999885446674406,17.066677137844586
6.540045824,0.9999523524311068,16.902259062049286
6.542333952,1.0000228775421987,16.736795557999937
6.544622592,1.000092658153508,16.57026644115552
6.54691072,1.000157129078194,16.40269299714867
6.549198848,1.0002120978298439,16.2341795567454
6.551487488,1.0002544104865922,16.06491483833044
6.553775616,1.0002812182851935,15.895079674804856
6.556064256,1.0002907610488632,15.72490562017256
6.558352384,1.0002824348595838,15.554679928704743
6.560640512,1.0002567985056168,15.384622329449066
6.562929152,1.0002153934864983,15.21500061230896
6.56521728,1.000160888775821,15.046007126108476
6.56750592,1.0000967164027328,14.877783273447047
6.569794048,1.0000267885971954,14.710489930399143
6.572082176,0.9999557196669923,14.544180994037609
6.574370816,0.9998877856282219,14.378785220832668
6.576658944,0.9998274392529505,14.214284724800173
6.578947584,0.999778439475749,14.050504675859207
6.581235712,0.9997439772886964,13.887275069615418
6.58352384,0.9997261896932603,13.72435967407705
6.58581248,0.9997260925806939,13.561508158758377
6.588100608,0.9997439743224351,13.398475334570934
6.590389248,0.9997785789951479,13.234985959662321
6.592677376,0.9998277762408789,13.070866711186456
6.594965504,0.9998882602116621,12.905838826507265
6.597254144,0.9999565696310171,12.739830803255419
6.599542272,1.0000281144334784,12.572741507341085
6.601830912,1.0000986268906265,12.404560862257638
6.60411904,1.000163381885722,12.235331382816364
6.606407168,1.000218430578024,12.06517172426598
6.608695808,1.0002603343162118,11.894227041490039
6.610983936,1.0002861627418278,11.722738209071649
6.613272064,1.000294728511512,11.550935163149752
6.615560704,1.0002850180779896,11.379075719170418
6.617848832,1.0002579218814383,11.207386034270426
6.620137472,1.0002149938546587,11.036177135953777
6.6224256,1.0001589449674193,10.865600864143417
6.624713728,1.0000933204656044,10.695834651675634
6.627002368,1.000022205285308,10.526993274497025
6.629290496,0.9999501239221178,10.359149600302587
6.631579136,0.999881751842728,10.192220016083844
6.633867264,0.9998212023600289,10.026171548424529
6.636155392,0.9997724100353423,9.860872670909563
6.638444032,0.9997386067767083,9.696091550685757
6.64073216,0.999721695628015,9.531623814485798
6.6430208,0.9997229598932087,9.367183422164148
6.645308928,0.9997421752646026,9.20255076703016
6.647597056,0.9997782452953087,9.037436665795541
6.649885696,0.9998288626409838,8.871638702529514
6.652173824,0.9998910324513265,8.7049507701101
6.654462464,0.9999606243450756,8.537244054501748
6.656750592,1.0000331333980568,8.368418019534365
6.65903872,1.0001043871233102,8.198492457785678
6.66132736,1.0001694547230453,8.027519677215668
6.663615488,1.0002245540734553,7.8555798547684415
6.665904128,1.0002659540788301,7.68290667302259
6.668192256,1.0002912298754172,7.509640784808577
6.670480384,1.0002985606435535,7.336096228861041
6.672769024,1.0002875377709595,7.162493321544439
6.675057152,1.0002589541746387,6.989102635392352
6.677345792,1.000214449884549,6.816168926746686
6.67963392,1.000156884736547,6.643914643764162
6.681922048,1.0000899785295894,6.472477238117554
6.684210688,1.0000177546276907,6.301982702309493
6.686498816,0.999944771074808,6.132475283939174
6.688786944,0.9998757866195979,5.963920012909571
6.691075584,0.9998150475846668,5.796262005554196
6.693363712,0.9997665565681401,5.629300502336438
6.695652352,0.9997332766129738,5.46287118747157
6.69794048,0.9997173019936738,5.2967345750542245
6.700228608,0.9997197764366792,5.130625541524707
6.702517248,0.9997404446114804,4.9642681104564845
6.704805376,0.9997780424292217,4.7974345835691325
6.707094016,0.9998302817940262,4.62985776518946
6.709382144,0.9998937894089834,4.461397024747682
6.711670272,0.999964625420073,4.291864567132787
6.713958912,1.0000383091517284,4.121225602313547
6.71624704,1.000110193388628,3.9494455254000993
6.71853568,1.0001756781156248,3.7766236471381163
6.720823808,1.0002307771777363,3.6028348767687968
6.723111936,1.0002717687730547,3.4282473156734263
6.725400576,1.000296204642428,3.253142381942426
6.727688704,1.0003025424353411,3.077748161455979
6.729977344,1.000290270005704,2.9022978459194717
6.732265472,1.0002602507016645,2.727089140486594
6.7345536,1.0002141654063441,2.552327360209923
6.73684224,1.0001551964863742,2.3782946445243427
6.739130368,1.0000868168844168,2.205087826642101
6.741419008,1.0000133878130253,2.032829400778615
6.743707136,0.9999395679541088,1.8615837251087222
6.745995264,0.9998700566870665,1.6912910551686755
6.748283904,0.9998092597379673,1.5218762251933173
6.750572032,0.9997609660206672,1.3531773612185092
6.75286016,0.9997282109683514,1.1850001714769778
6.7551488,0.9997130906721549,1.0170678470789491
6.757436928,0.9997167627528499,0.8491725426506163
6.759725568,0.9997386818947309,0.6810222353624656
6.762013696,0.9997778904875517,0.5123489534086031
6.764301824,0.9998315226749056,0.3429090886395601
6.766590464,0.9998964712870905,0.17255413302471798
6.768878592,0.9999685885468667,0.0011305413553142746
6.771167232,1.0000433399789455,-0.17145822734916777
6.77345536,1.0001158999604174,-0.3451688616626682
6.775743488,1.0001818537184393,-0.5199701738148703
6.778032128,1.000236819274182,-0.6957341022412097
6.780320256,1.0002774433443893,-0.8722700304725546
6.782608896,1.0003012741506563,-1.049354355462722
6.784897024,1.000306507910117,-1.2267153432409024
6.787185152,1.000292961478256,-1.4041079030604293
6.789473792,1.0002615052305306,-1.581234644096437
6.79176192,1.0002140086507676,-1.7578921413492434
6.79405056,1.000153523279944,-1.9338321881309122
6.796338688,1.0000838351571777,-2.1089173198601876
6.798626816,1.0000092567015986,-2.2830347545394103
6.800915456,0.9999344989843878,-2.4561547245258417
6.803203584,0.9998644191716698,-2.628284757193758
6.805492224,0.9998033807781406,-2.799547092230202
6.807780352,0.9997552172646356,-2.970105618530913
6.81006848,0.9997230449742482,-3.1401466724900944
6.81235712,0.9997088466900638,-3.3099345273652583
6.814645248,0.9997135710409957,-3.4797181707090346
6.816933888,0.9997368902637315,-3.6497863027625876
6.819222016,0.9997774316335698,-3.8204016416694886
6.821510144,0.9998326386611408,-3.9917912029721796
6.823798784,0.9998989616309842,-4.164163185223377
6.826086912,0.9999724763725921,-4.337591690733773
6.82837504,1.000048096749506,-4.512208952436529
6.83066368,1.0001214102721394,-4.687973844512256
6.832951808,1.000187742434127,-4.864838103920462
6.835240448,1.000242793790337,-5.042656832811016
6.837528576,1.0002831108628507,-5.22127518677683
6.839816704,1.0003061284960204,-5.400410350807687
6.842105344,1.0003104507055927,-5.579836339775996
6.844393472,1.0002957207737824,-5.759266622621932
6.846682112,1.000262764750518,-5.938441411316969
6.84897024,1.0002138577984665,-6.117104762550742
6.851258368,1.0001518487485834,-6.295046121334714
6.853547008,1.0000807896692843,-6.472108231091214
6.855835136,1.0000051065797777,-6.648183975948811
6.858123776,0.9999295211046954,-6.823257995639108
6.860411904,0.9998587764478805,-6.997350956171604
6.862700032,0.9997975066213807,-7.170564928380216
6.864988672,0.9997495173740792,-7.343074810433734
6.8672768,0.9997178306924313,-7.515061704315588
6.86956544,0.9997044119316006,-7.686826893925798
6.871853568,0.9997102661113376,-7.858594804865611
6.874141696,0.9997349190694209,-8.030702413135137
6.876430336,0.9997769558035091,-8.203347783935737
6.878718464,0.9998334876142668,-8.376796201674823
6.881007104,0.9999012981708966,-8.551237007435125
6.883295232,0.9999760034387063,-8.726792877025936
6.88558336,1.0000527638072723,-8.903523008468797
6.887872,1.000126803651938,-9.081442902428847
6.890160128,1.0001934341743508,-9.260473030967804
6.892448768,1.0002485437273028,-9.440450366217673
6.894736896,1.0002885666289936,-9.621227540809157
6.897025024,1.0003110200580716,-9.802548406633612
6.899313664,1.0003143199133322,-9.984115317620027
6.901601792,1.0002984355109954,-10.165704532230917
6.90388992,1.0002642333030698,-10.347009551258076
6.90617856,1.0002137084841827,-10.527774690202438
6.908466688,1.0001504306681557,-10.707832764380536
6.910755328,1.000078028269582,-10.886970234727094
6.913043456,1.0000011841661924,-11.065133330034369
6.915331584,0.9999247135035695,-11.242236213163208
6.917620224,0.9998534581536306,-11.41839200538165
6.919908352,0.99979190324118,-11.593654743915657
6.922196992,0.9997439792365723,-11.768220794619927
6.92448512,0.999712747329671,-11.942267811406497
6.926773248,0.9997001498199742,-12.116101764826345
