freq,mag,phase
6.0,1.0001500335175006,-77.2705339639181
6.006861312,1.0001715895571293,-77.57408552041154
6.013722112,1.0001853172837245,-77.87793857130883
6.020583424,1.0001889441125476,-78.18187115844339
6.027444224,1.0001826130797127,-78.48583358893693
6.034305536,1.0001663570165402,-78.78962619114695
6.041166336,1.0001411366761344,-79.09318378705161
6.048027648,1.0001084917465561,-79.3963474735469
6.054888448,1.0000700289981563,-79.69904972314372
6.06174976,1.0000278289954692,-80.00121562762222
6.06861056,0.9999846788184551,-80.30282510539563
6.075471872,0.9999424995757383,-80.60385860065823
6.082332672,0.9999037481687428,-80.90438042185721
6.089193984,0.9998706266885525,-81.20439839921741
6.096054784,0.9998451497099248,-81.5040368939563
6.102916096,0.9998285451255273,-81.80341350944354
6.109776896,0.9998216668759018,-82.10264273804694
6.116638208,0.9998250607569908,-82.40185945514945
6.123499008,0.999838483925427,-82.70122354981805
6.13036032,0.9998611827025503,-83.00082492249174
6.13722112,0.9998918880105795,-83.30078807830621
6.144082432,0.9999290827196639,-83.60123629475497
6.150943232,0.9999704778988378,-83.90225104418143
6.157804544,1.000013715733745,-84.20383750285826
6.164665344,1.0000565509410049,-84.5060451228633
6.171526656,1.000096748285778,-84.80881810382013
6.178387456,1.0001316863724088,-85.11210768442054
6.185248768,1.0001597939982463,-85.41583092260274
6.192109568,1.0001792290437845,-85.71990673693311
6.19897088,1.0001892132778487,-86.02423978838978
6.20583168,1.0001888129614298,-86.32857452864238
6.212692992,1.0001783580894368,-86.63290126541946
6.219553792,1.0001582616594842,-86.93705053458753
6.226415104,1.0001298294825027,-87.24084837991212
6.233275904,1.0000942172305713,-87.54423050857638
6.240137216,1.0000538281757236,-87.84709928536793
6.246998528,1.0000107952728186,-88.14944888164798
6.253859328,0.9999674131135204,-88.4511733582029
6.26072064,0.9999260934520793,-88.75237792879639
6.26758144,0.9998891928391092,-89.05307441449276
6.274442752,0.9998587711592826,-89.35328519513172
6.281303552,0.9998364021678922,-89.65319629450325
6.288164864,0.9998234919581578,-89.95282228763465
6.295025664,0.9998206934307605,-90.25238143213292
6.301886976,0.9998283086955481,-90.55200799781105
6.308747776,0.999845542579703,-90.85177968083028
6.315609088,0.9998717864257421,-91.15188310238413
6.322469888,0.9999055140043841,-91.45243154387556
6.3293312,0.999944712503955,-91.75344282860081
6.336192,0.9999874460221025,-92.05504833779621
6.343053312,1.0000311368068895,-92.35725079543103
6.349914112,1.000073510120059,-92.66006024562742
6.356775424,1.0001120467194065,-92.96341317690805
6.363636224,1.0001446615306706,-93.26728965983563
6.370497536,1.0001696318631894,-93.5715742253412
6.377358336,1.000185564451268,-93.87611602941867
6.384219648,1.000191525029144,-94.18084324887306
6.391080448,1.000187124814751,-94.48558078886805
6.39794176,1.0001725562611126,-94.79018864937672
6.40480256,1.0001488585905274,-95.0945674131403
6.411663872,1.0001171682653274,-95.39859032635273
6.418524672,1.0000792106398853,-95.70218602531804
6.425385984,1.0000371842333926,-96.00516248247337
6.432246784,0.9999933994748349,-96.30763811460596
6.439108096,0.999950363838698,-96.60950823695786
6.445968896,0.9999101930333756,-96.91083907693046
6.452830208,0.999875403140003,-97.21167427978848
6.459691008,0.9998477438840517,-97.51210637930971
6.46655232,0.9998290928706597,-97.81221466458938
6.473413632,0.9998200312132706,-98.11214819377408
6.480274432,0.9998212782856634,-98.41204076806459
6.487135744,0.9998329051639774,-98.7120348778841
6.493996544,0.9998540351765112,-99.01228199910246
6.500857856,0.9998835698537881,-99.31285851882943
6.507718656,0.9999200899414068,-99.61390790462126
6.514579968,0.9999612200901665,-99.91550224469918
6.521440768,1.0000048426129395,-100.21767425436174
6.52830208,1.0000485632789713,-100.52048232897974
6.53516288,1.0000899464674091,-100.82384164826703
6.542024192,1.000126657197741,-101.12776208135689
6.548884992,1.0001566516407547,-101.43214859216832
6.555746304,1.0001782648531847,-101.73688899930356
6.562607104,1.0001904173491925,-102.04186209055973
6.569468416,1.000192208178861,-102.34695921136549
6.576329216,1.0001837235894921,-102.65203949820369
6.583190528,1.0001652665687448,-102.95693828267649
6.590051328,1.0001379640698875,-103.26154255349202
6.59691264,1.0001033571600604,-103.56571572994461
6.60377344,1.0000632469360016,-103.86942037444419
6.610634752,1.0000199827400464,-104.1725355207666
6.617495552,0.9999759107256275,-104.47509709603219
6.624356864,0.9999333416128576,-104.77708758927993
6.631217664,0.9998948833985546,-105.07851197125436
6.638078976,0.9998626194071045,-105.37945555231083
6.644939776,0.9998381961471879,-105.68006979019978
6.651801088,0.9998231181975581,-105.98039010012789
6.658661888,0.9998181403861197,-106.28059270626213
6.6655232,0.9998235237009626,-106.58084103686963
6.672384,0.999839122476801,-106.8812099263806
6.679245312,0.9998640238585322,-107.18185818736261
6.686106112,0.999896757786797,-107.48295862849456
6.692967424,0.9999355121820863,-107.78450140502692
6.699828224,0.9999782283640813,-108.08664515174472
6.706689536,1.0000224757217773,-108.38936848866793
6.713550848,1.0000658664410007,-108.69269356012786
6.720411648,1.0001059686700173,-108.99661583383454
6.72727296,1.0001403917700509,-109.30104795538503
6.73413376,1.0001674694326446,-109.60591552922278
6.740995072,1.0001855984946524,-109.91112079215249
6.747855872,1.0001937471979259,-110.21647513657977
6.754717184,1.0001913161569895,-110.5218880308913
6.761577984,1.0001787337755137,-110.82722826093918
6.768439296,1.000156468578692,-111.13234925950778
6.775300096,1.0001259742890407,-111.43708775449768
6.782161408,1.0000886724965334,-111.7414029253211
6.789022208,1.00004670333355,-112.04517427266637
6.79588352,1.0000024349250227,-112.34839767400334
6.80274432,0.9999584290996599,-112.65101322054956
6.809605632,0.9999169740444439,-112.95306402496085
6.816466432,0.9998804398005724,-113.25459056354262
6.823327744,0.9998508146164236,-113.5556551842732
6.830188544,0.9998298947589644,-113.85641659194826
6.837049856,0.9998186421157005,-114.15697561034433
6.843910656,0.9998178144680419,-114.45743441506548
6.850771968,0.9998274122181362,-114.75798297075553
6.857632768,0.9998469039057659,-115.05872931144633
6.86449408,0.9998752855962955,-115.35979981631375
6.87135488,0.999910848566879,-115.66134277640835
6.878216192,0.999951756450381,-115.96341679331708
6.885076992,0.9999957454397385,-116.26604594627295
6.891938304,1.0000402680129414,-116.56930752592905
6.898799104,1.0000829145231958,-116.87316588594209
6.905660416,1.0001212741399128,-117.17758231230115
6.912521216,1.000153291190791,-117.48251011859375
6.919382528,1.0001770487527772,-117.78779050453161
6.926243328,1.0001914008102777,-118.09336363234277
6.93310464,1.0001954503359487,-118.39906370587623
6.93996544,1.0001889886527786,-118.70475505093708
6.946826752,1.0001723212171407,-119.01031158933843
6.953688064,1.0001463941456854,-119.31558661692645
6.960548864,1.0001126724567997,-119.62044882196602
6.967410176,1.0000729737287744,-119.92484628159883
6.974270976,1.0000296331597749,-120.22866922734143
6.981132288,0.9999848337864311,-120.53190183428842
6.987993088,0.9999412152150327,-120.83456336114521
6.9948544,0.9999011432226245,-121.13668944467412
7.0017152,0.9998669254661651,-121.43824720420437
7.008576512,0.9998404143680859,-121.73944553422052
7.015437312,0.9998229817921926,-122.04034984457617
7.022298624,0.9998158292658184,-122.34109560584972
7.029159424,0.9998191123348157,-122.64183270724368
7.036020736,0.9998328063074635,-122.9426585330051
7.042881536,0.9998561326817277,-123.24376959911073
7.049742848,0.9998878288871927,-123.5452533661176
7.056603648,0.9999260720571167,-123.84723397255706
7.06346496,0.9999687654868259,-124.14979245642441
7.07032576,1.0000136207450945,-124.45290936161759
7.077187072,1.0000579598954646,-124.756662288859
7.084047872,1.0000994196760575,-125.06102472565148
7.090909184,1.0001358319659945,-125.36588943903664
7.097769984,1.000164998970148,-125.67125240261487
7.104631296,1.0001852707120036,-125.97692915281615
7.111492096,1.000195686876504,-126.28281977078085
7.118353408,1.0001955827088842,-126.58881134522689
7.125214208,1.0001849636809759,-126.8947269389071
7.13207552,1.0001643924867198,-127.20044815220885
7.13893632,1.0001349162044908,-127.50582821671071
7.145797632,1.0000983132631451,-127.8107660987941
7.152658432,1.0000566432907088,-128.11518748535192
7.159519744,1.000012076546415,-128.4190090886147
7.166380544,0.9999670974387223,-128.72225152447874
7.173241856,0.9999243270439062,-129.02493064351765
7.180103168,0.9998860599575733,-129.32703044581754
7.186963968,0.9998544318618537,-129.62867680127198
7.19382528,0.9998311880525326,-129.92994706524507
7.20068608,0.9998176089666191,-130.2309940554385
7.207547392,0.9998145485217034,-130.53188931036635
7.214408192,0.9998220786666481,-130.83287429265457
7.221269504,0.9998398812866076,-131.13402386457673
7.228130304,0.9998667967723136,-131.4354754982898
7.234991616,0.9999016172279906,-131.73734111988549
7.241852416,0.9999421630929637,-132.03978190267634
7.248713728,0.9999862746277854,-132.34275124423385
7.255574528,1.0000314962799546,-132.64635927115205
7.26243584,1.0000753761307162,-132.95057651692335
7.26929664,1.0001154181294394,-133.25535964895485
7.276157952,1.0001494055989792,-133.56066651287153
7.283018752,1.0001754706156096,-133.8663760924267
7.289880064,1.000192110338897,-134.17240875978774
7.296740864,1.0001983987281935,-134.4785712488756
7.303602176,1.0001940443620387,-134.78478514076082
7.310462976,1.0001792684911994,-135.09084922097915
7.317324288,1.0001548617447187,-135.39668489271426
7.324185088,1.0001221573678842,-135.70213970708707
7.3310464,1.0000830297658483,-136.0070927249995
7.3379072,1.000039595745866,-136.31151202936195
7.344768512,0.9999942189777579,-136.6152925411393
7.351629312,0.9999495506491691,-136.91852612021276
7.358490624,0.999907992135017,-137.2211327594944
7.365351424,0.9998717412869078,-137.52324262891247
7.372212736,0.9998430297814829,-137.8249179113757
7.379073536,0.9998234099857317,-138.1262782853506
7.385934848,0.9998138645270102,-138.4274194169375
7.392795648,0.9998149610531673,-138.728522145877
7.39965696,0.9998267079103756,-139.0297037421806
7.40651776,0.9998484512786039,-139.33115475087516
7.413379072,0.9998789136516386,-139.63293401454655
7.420240384,0.9999165197341171,-139.93519805848146
7.427101184,0.9999590721925642,-140.23799733869558
7.433962496,1.00000429858801,-140.5414292221994
7.440823296,1.0000496216212362,-140.84545025223377
7.447684608,1.0000926106362604,-141.15010664667207
7.454545408,1.0001307999054523,-141.4552925034754
7.46140672,1.0001621133499705,-141.76098968550312
7.46826752,1.0001847261490622,-142.06700813341865
7.475128832,1.0001974794696555,-142.37331779291586
7.481989632,1.0001996286255148,-142.67972845085964
7.488850944,1.000191032752343,-142.9861015123764
7.495711744,1.0001721396003973,-143.29228344953796
7.502573056,1.0001440565825936,-143.59815056497763
7.509433856,1.0001083501464638,-143.90360741183886
7.516295168,1.000066854724026,-144.2085439238713
7.523155968,1.0000220485108102,-144.51289252187632
7.53001728,0.9999762950994454,-144.81666669668596
7.53687808,0.9999321591163775,-145.11978908459164
7.543739392,0.9998921631126734,-145.42234867979442
7.550600192,0.9998584122586736,-145.7244509643966
7.557461504,0.9998328592471677,-146.0261172791331
7.564322304,0.9998169697713559,-146.32750771542777
7.571183616,0.9998115246565132,-146.62877699081358
7.578044416,0.9998169360167936,-146.9300099440506
7.584905728,0.9998328334574617,-147.23145176521112
7.591766528,0.999858347709095,-147.5331403136526
7.59862784,0.9998921063911246,-147.83524512650095
7.60548864,0.9999323229856935,-148.13785202067422
7.612349952,0.9999764860927349,-148.44105441389368
7.619210752,1.0000224214910673,-148.7448874090112
7.626072064,1.0000675284390854,-149.04929806606268
7.632932864,1.0001091145705983,-149.35433748308168
7.639794176,1.0001451796866443,-149.65989281533473
7.646654976,1.0001734991853555,-149.96589907441611
7.653516288,1.0001924657392383,-150.27223650709644
7.6603776,1.000201140196263,-150.57876349593988
7.6672384,1.000199078583551,-150.88531813718356
7.674099712,1.0001862935983417,-151.1917983550182
7.680960512,1.0001633881021441,-151.49804980802142
7.687821824,1.0001318578499976,-151.80393116477438
7.694682624,1.000093380508812,-152.10933922860738
7.701543936,1.0000499215371061,-152.4141842704133
7.708404736,1.000004011268635,-152.7184340533922
7.715266048,0.9999582564575721,-153.02208067936772
7.722126848,0.9999150862520548,-153.3251251788201
7.72898816,0.9998770655971065,-153.6276113391007
7.73584896,0.9998460885795734,-153.92962134434825
7.742710272,0.9998241112253523,-154.23130985222735
7.749571072,0.9998120885886127,-154.53273401029247
7.756432384,0.9998109579015465,-154.83410721730496
7.763293184,0.9998206487560044,-155.13549989017798
7.770154496,0.9998405757066411,-155.43709976345923
7.777015296,0.9998698215605628,-155.7390548981245
7.783876608,0.9999066289478531,-156.04147856627867
7.790737408,0.9999490108013748,-156.3444196852963
7.79759872,0.9999946252961521,-156.64797060392334
7.80445952,1.0000408059040493,-156.9521528579638
7.811320832,1.0000851274581795,-157.25695063486523
7.818181632,1.0001252156337026,-157.5623433043496
7.825042944,1.0001586521668484,-157.86822764739884
7.831903744,1.0001836546281884,-158.174471224402
7.838765056,1.000198841797055,-158.48105505239266
7.845625856,1.000203357622203,-158.78773207840388
7.852487168,1.000196930234073,-159.09443206625673
7.859347968,1.0001799303113614,-159.40095368500275
7.86620928,1.0001532354769829,-159.707211289373
7.87307008,1.000118396712797,-160.01301658935137
7.879931392,1.000077315922265,-160.31835482515382
7.886792704,1.00003230151012,-160.62307959922632
7.893653504,0.9999857941373032,-160.92718805089132
7.900514816,0.9999403343414403,-161.23068885124835
7.907375616,0.9998985594333062,-161.53357128560444
7.914236928,0.9998627471680699,-161.8359710405362
7.921097728,0.9998348934579021,-162.13790180028494
7.92795904,0.999816638812368,-162.43954199515017
7.93481984,0.9998087990546852,-162.74100208248916
7.941681152,0.9998119125924766,-163.04241627954636
7.948541952,0.999825801021579,-163.34398162328733
7.955403264,0.9998498585958038,-163.64577478071186
7.962264064,0.9998825145663016,-163.94798470393465
7.969125376,0.999922121727636,-164.2506685524873
7.975986176,0.9999664225786041,-164.55392688294359
7.982847488,1.0000129708510386,-164.85780644623782
7.989708288,1.0000591797639211,-165.16232461124423
7.9965696,1.0001024701671248,-165.46744733541192
8.0034304,1.0001405616144565,-165.773129001531
8.010291712,1.0001710847565897,-166.07925818247602
8.017152512,1.0001925421385849,-166.38578572941194
8.024013824,1.000203654589791,-166.69251767453787
8.030874624,1.0002038466017147,-166.99931144226255
8.037735936,1.000193105208608,-167.3060699444374
8.044596736,1.0001720204844529,-167.61259233148678
8.051458048,1.0001416213520962,-167.9187671505234
8.058318848,1.000103786656468,-168.22450363806092
8.06518016,1.0000604479627302,-168.5296835454871
8.07204096,1.0000140981832633,-168.83423914866418
8.078902272,0.9999674050945411,-169.13818437528857
8.085763072,0.9999227914640803,-169.44147589554103
8.092624384,0.9998828390356064,-169.74422274567044
8.099485184,0.999849545404332,-170.04647765645845
8.106346496,0.9998251340848803,-170.34832320049793
8.113207296,0.9998106368073296,-170.6499072906394
8.120068608,0.9998070885575373,-170.95137347650657
8.12692992,0.9998145673260074,-171.25288102847387
8.13379072,0.9998327545705802,-171.55453254929017
8.140652032,0.9998605377744395,-171.8565233816971
8.147512832,0.999896565572984,-172.1589546393967
8.154374144,0.9999385849209828,-172.46189353745433
8.161234944,0.9999844981141863,-172.76546005992643
8.168096256,1.0000315711891976,-173.06961679948952
8.174957056,1.000077403785782,-173.37445456461887
8.181818368,1.000119193539682,-173.6798582736875
8.188679168,1.000154868407887,-173.9857846106365
8.19554048,1.000182291672993,-174.29218578459242
8.20240128,1.0001999209796892,-174.59882629372763
8.209262592,1.0002069686298114,-174.90569893069346
8.216123392,1.000202649831282,-175.21254657086203
8.222984704,1.0001875854541713,-175.51928083320007
8.229845504,1.000162536902907,-175.82576794081922
8.236706816,1.000128634594315,-176.13181959309392
8.243567616,1.0000880410815731,-176.4373834043298
8.250428928,1.0000429200297385,-176.74238123133648
8.257289728,0.9999956400649405,-177.04673544293115
8.26415104,0.9999490159650238,-177.3504406034252
8.27101184,0.9999055184872062,-177.6535476192832
8.277873152,0.9998675682655344,-177.9561184764052
8.284733952,0.9998373211064819,-178.25819221382528
8.291595264,0.9998164709080852,-178.5599401157701
8.298456064,0.9998061445913736,-178.86145847200015
8.305317376,0.9998070082636387,-179.1629209671487
8.312178176,0.9998187863932556,-179.46445789721452
8.319039488,0.9998411892448016,-179.7662500449862
8.325900288,0.9998727414198725,179.9315953184555
8.3327616,0.9999116488996905,179.62898389008328
8.3396224,0.9999559802999455,179.32579166670058
8.346483712,1.0000030490388814,179.02198253571552
8.353345024,1.0000502977559564,178.71752739109067
8.360205824,1.0000952713048512,178.41245194912594
8.367067136,1.0001353284791363,178.10677425644815
8.373927936,1.0001681651358054,177.80061803971063
8.380789248,1.0001921476550786,177.49410147707263
8.387650048,1.0002058720069877,177.18729770473337
8.39451136,1.0002084000827862,176.88038474071845
8.40137216,1.0001998199338271,176.57351983170156
8.408233472,1.000180524628028,176.2668531239269
8.415094272,1.0001515480699041,175.96050086999526
8.421955584,1.0001144704696436,175.65458472282063
8.428816384,1.00007134837001,175.34923829112748
8.435677696,1.0000246385625602,175.04449678872064
8.442538496,0.9999768697950618,174.7403818510457
8.449399808,0.9999306730384457,174.4369232145269
8.456260608,0.999888734757778,174.13404959288175
8.46312192,0.9998532420945289,173.83171727715757
8.46998272,0.99982630002526,173.52981374105948
8.476844032,0.9998094153233846,173.22819031256972
8.483704832,0.9998033448394503,172.92673920975335
8.490566144,0.9998085402077566,172.62529377667747
8.497426944,0.9998248018047533,172.3237100019074
8.504288256,0.9998512539958533,172.02184684810234
8.511149056,0.9998861562142088,171.7195442247689
8.518010368,0.9999278847575294,171.41673282717667
8.524871168,0.9999740594521972,171.11331877636846
8.53173248,1.0000219758840558,170.8092685172928
8.53859328,1.000068996041805,170.5045889120339
8.545454592,1.0001127701751733,170.19926731512157
8.552315392,1.0001505594593698,169.89339506820033
8.559176704,1.000180394111967,169.58709277935952
8.566037504,1.0002006303298845,169.28042086283344
8.572898816,1.000210066968102,168.97356805556825
8.579759616,1.0002083217516933,168.66665776200742
8.586620928,1.00019519963224,168.35984877522128
8.593481728,1.0001718127266737,168.05329180613185
8.600343552,1.0001390208457086,167.74710947986088
8.607204352,1.0000989705282637,167.44142771497363
8.614065152,1.0000537522123154,167.13631551558942
8.620925952,1.0000058659380566,166.8318574249229
8.627787776,0.9999578581389544,166.52803425001878
8.634648576,0.9999127360723818,166.2248671634102
8.641509376,0.9998726906171561,165.92225679678938
8.648370176,0.9998400306483343,165.62015708243428
8.655232,0.9998166622181518,165.31845494953797
8.6620928,0.9998037857877741,165.01697518077918
8.6689536,0.9998021645091364,164.7156105506353
8.6758144,0.9998118620502588,164.41419065572933
8.682676224,0.9998324659869093,164.11257901718304
8.689537024,0.9998626273363181,163.8106009034369
8.696397824,0.9999008492296075,163.50818142828905
8.703258624,0.9999450023840759,163.2052038974326
8.710120448,0.9999926116270924,162.90161002396897
8.716981248,1.0000409698228816,162.5973392523188
8.723842048,1.0000875120368518,162.29244095514625
8.730702848,1.0001295890025965,161.98696181295168
