freq,mag,phase
6.0,0.9998438615766155,-104.78090939876009
6.002285056,0.9997526554928227,-104.90974785783477
6.004570112,0.9996780035371876,-105.03738860712528
6.006855168,0.9996238160450833,-105.16410787572337
6.009140224,0.9995935878678908,-105.29022620776162
6.01142528,0.9995892334922156,-105.41607054070442
6.013710336,0.9996109833592632,-105.54209383756698
6.015995392,0.9996574805236426,-105.6685999074045
6.018280448,0.9997259570065763,-105.79592388552378
6.020565504,0.9998117411406581,-105.92441992832586
6.02285056,0.9999096221436017,-106.05423919070886
6.025135616,1.000013522456084,-106.18553069233654
6.027420672,1.000116423676915,-106.31836670651971
6.029705728,1.000212120257488,-106.452640620684
6.031990784,1.0002944872816155,-106.58819599868902
6.03427584,1.000358063162811,-106.72484490876238
6.036560896,1.0003990531793372,-106.86226435149253
6.038845952,1.000414674940645,-107.00008817412423
6.041131008,1.0004041746917844,-107.13798105273915
6.043416064,1.0003678710758925,-107.27550576204088
6.04570112,1.0003082340719764,-107.41240309206755
6.047986176,1.000228974784327,-107.5482261201552
6.050271232,1.0001352642471641,-107.68282376098426
6.052556288,1.0000328461237338,-107.81602557076306
6.054841344,0.999928472944256,-107.94773018123541
6.0571264,0.9998284846573395,-108.07793879638933
6.059411456,0.9997394982099962,-108.20676277811796
6.061696512,0.999666949475513,-108.3344283164584
6.063981568,0.9996156140622484,-108.46119030111498
6.066266624,0.9995886549337014,-108.58741610319778
6.06855168,0.9995880373376546,-108.71345087793792
6.070836736,0.9996136313298659,-108.8396375266133
6.073121792,0.9996637873570113,-108.96638246299271
6.075406848,0.9997354886710952,-109.0940543055674
6.077691904,0.9998240028637133,-109.22285589447577
6.07997696,0.9999237197984501,-109.35307041482191
6.082262016,1.0000284653598694,-109.4847824541562
6.084547072,1.0001314649553406,-109.61799088465351
6.086832128,1.0002262035540068,-109.75265847219453
6.089117184,1.0003066753117937,-109.88861208630291
6.09140224,1.000367757346442,-110.02557586076207
6.093687296,1.0004053867170135,-110.16328099409091
6.095972352,1.0004175179526413,-110.30135735301387
6.098257408,1.0004031313260808,-110.43942739124908
6.100542464,1.0003631378539348,-110.57710770455293
6.10282752,1.000300076729142,-110.7140487866266
6.105112576,1.0002179931121549,-110.84992387178768
6.107397632,1.0001220116558207,-110.98456353357014
6.1096832,1.0000182440382472,-111.11770886786786
6.111968256,0.9999133367357377,-111.24936133796616
6.114253312,0.9998139008995435,-111.37955084476928
6.116538368,0.9997262746138758,-111.50833769372453
6.118823424,0.9996560980017968,-111.63601929681815
6.12110848,0.9996077098666432,-111.7627979728881
6.123393536,0.9995843359191536,-111.88907707925577
6.125678592,0.9995874254166187,-112.01522552539757
6.127963648,0.9996166818318625,-112.14162036632707
6.130248704,0.9996705683755412,-112.26861016125811
6.13253376,0.9997453240247786,-112.3965499045048
6.134818816,0.9998362519537003,-112.52571266888583
6.137103872,0.9999379171455065,-112.65625740693453
6.139388928,1.0000435332215256,-112.7883252611227
6.141673984,1.0001463900727665,-112.92191876968111
6.14395904,1.0002400894624786,-113.05695493674733
6.146244096,1.0003186286175592,-113.19327008996702
6.148529152,1.0003769202883526,-113.3305618129658
6.150814208,1.000411448415582,-113.46849598943075
6.153099264,1.0004198363349353,-113.60682059926756
6.15538432,1.0004016963243791,-113.74503245550588
6.157669376,1.0003579421759787,-113.88282487846568
6.159954432,1.0002914855167875,-114.01981021508831
6.162239488,1.000206620075089,-114.15571712132159
6.164524544,1.0001084620262395,-114.29029047155451
6.1668096,1.0000034794432093,-114.42336529841462
6.169094656,0.999898321851103,-114.55497974914408
6.171379712,0.9997995372940889,-114.68505663573836
6.173664768,0.9997135047833533,-114.81381308977018
6.175949824,0.9996456112328379,-114.9414659830311
6.17823488,0.9996003989578779,-115.06825881608168
6.180519936,0.999580529495579,-115.19462437971232
6.182804992,0.9995874417128303,-115.32084588615518
6.185090048,0.9996205523711539,-115.44740218278109
6.187375104,0.9996778338198,-115.5746378717194
6.18966016,0.9997557556154273,-115.70283903102886
6.191945216,0.9998493172464407,-115.83227850495595
6.194230272,0.9999524690063583,-115.96316519551286
6.196515328,1.000058722700999,-116.09557793495112
6.198800384,1.000161408536266,-116.22956834876715
6.20108544,1.000253871580804,-116.3649076744177
6.203370496,1.0003304173929566,-116.50153896498436
6.205655552,1.0003860290799464,-116.63908332223527
6.207940608,1.000417101236449,-116.7772943102453
6.210225664,1.0004218506483327,-116.91578349462372
6.21251072,1.000399732356292,-117.05415220100316
6.214795776,1.0003523429328325,-117.19198691115376
6.217080832,1.0002825870118879,-117.32901099137618
6.219365888,1.0001948816971882,-117.46489575197283
6.221650944,1.000094805994776,-117.59936204547947
6.223936,0.9999886442733624,-117.73240003199908
6.226221056,0.9998832289696805,-117.86386582656607
6.228506112,0.9997852558297459,-117.99389774820071
6.230791168,0.9997009632777588,-118.12257182648945
6.233076224,0.9996355958362707,-118.25012773141263
6.23536128,0.9995933732541334,-118.3769772642391
6.237646336,0.9995771967704767,-118.5033555672464
6.239931392,0.9995878034992555,-118.62970733879982
6.242216448,0.9996246918828099,-118.75637579360158
6.244501504,0.9996855964474258,-118.88381250454958
6.24678656,0.9997666090904888,-119.01226472509235
6.249071616,0.999862506536992,-119.14195445350508
6.251356672,0.9999671461294203,-119.27317609591692
6.253641728,1.000074103935451,-119.40592223576944
6.255926784,1.0001764093990269,-119.54020274162383
6.25821184,1.0002676166877627,-119.67587675839259
6.260496896,1.0003418788592526,-119.81277297837737
6.262781952,1.0003945865355486,-119.95061675621245
6.265067008,1.000422285329279,-120.08902338237395
6.267352064,1.0004231993879917,-120.22765279621947
6.26963712,1.0003972654966062,-120.36606898810854
6.271922176,1.0003461457320222,-120.50397728780585
6.274207232,1.0002730663953554,-120.64098354739312
6.276492288,1.0001826331394836,-120.77679729275205
6.278777344,1.0000807315400946,-120.91119915276509
6.2810624,0.9999735220775755,-121.04409518766411
6.283347456,0.9998679928319826,-121.17543471508709
6.285632512,0.9997709186507938,-121.30533443793708
6.287917568,0.9996883602564902,-121.43391730620787
6.290202624,0.9996256326442106,-121.5614144472157
6.29248768,0.9995866977076693,-121.68819195602465
6.294772736,0.9995741780120583,-121.8146275455257
6.297057792,0.999588620851955,-121.94103704991295
6.299342848,0.9996294186057694,-122.06786392422602
6.301627904,0.999693783815389,-122.19544324364375
6.30391296,0.9997777384461634,-122.32412006022679
6.306198016,0.9998757973221155,-122.45413225409749
6.308483072,0.999981935705608,-122.58562405284322
6.310768128,1.000089359883145,-122.71863398996524
6.313053184,1.0001912430883184,-122.8532382716229
6.31533824,1.0002809917970161,-122.9891912187152
6.317623296,1.0003529292251545,-123.12636607583477
6.319908352,1.0004025925589408,-123.26442973510932
6.322193408,1.0004268904594882,-123.40298970897352
6.324478976,1.0004239677846267,-123.5417246945288
6.326764032,1.0003942122750256,-123.68025958768165
6.329049088,1.0003394651789383,-123.81814024005087
6.331334144,1.0002632400029179,-123.95507845554543
6.3336192,1.000170128780418,-124.09080617032562
6.335904256,1.000066420547977,-124.22508384806385
6.338189312,0.9999583184785207,-124.357839823999
6.340474368,0.9998528689898866,-124.48904000730455
6.342759424,0.9997568252059712,-124.61879084214718
6.34504448,0.9996762545275828,-124.7472150181461
6.347329536,0.9996161830197471,-124.87464955422858
6.349614592,0.9995806113356034,-125.00137645623663
6.351899648,0.9995717828421249,-125.12779026105773
6.354184704,0.9995901203085283,-125.25425609287522
6.35646976,0.9996347364788787,-125.38118190785613
6.358754816,0.9997025079597364,-125.5089441508474
6.361039872,0.9997892946182045,-125.63783461054157
6.363324928,0.999889682031848,-125.76807107872403
6.365609984,0.9999971506493064,-125.89982438710229
6.36789504,1.0001048206240424,-126.03316249536928
6.370180096,1.0002060955323782,-126.16801038689293
6.372465152,1.0002942561842263,-126.3042591024646
6.374750208,1.0003638921014757,-126.44160745004723
6.377035264,1.0004105364438163,-126.57985128669094
6.37932032,1.00043103389703,-126.71856131265284
6.381605376,1.000424408947141,-126.85737980658415
6.383890432,1.0003907802511025,-126.99592969065027
6.386175488,1.0003324060897858,-127.13381951825998
6.388460544,1.0002528868741556,-127.27067224582622
6.3907456,1.000157314152991,-127.40628123403441
6.393030656,1.0000518109600387,-127.5403985649572
6.395315712,0.9999429871329963,-127.67297389193718
6.397600768,0.9998377327339041,-127.80399670011089
6.399885824,0.9997428248358865,-127.93354450492295
6.40217088,0.9996642699396591,-128.06186109540818
6.404455936,0.9996071301368853,-128.1891708454689
6.406740992,0.9995749167374788,-128.31582853818756
6.409026048,0.9995697993135952,-128.44220726911345
6.411311104,0.9995921340125571,-128.5687034574324
6.41359616,0.9996404123011223,-128.69574484469376
6.415881216,0.9997117253144439,-128.82363892784832
6.418166272,0.9998013445783978,-128.95271959722936
6.420451328,0.9999037753326631,-129.08316755164896
6.422736384,1.0000124125314434,-129.2151887055915
6.42502144,1.0001203764034263,-129.34875522343805
6.427306496,1.000220869091188,-129.48384345585612
6.429591552,1.0003073646852494,-129.62031862012523
6.431876608,1.0003744251794562,-129.75791249928062
6.434161664,1.0004178182318832,-129.8962913820792
6.43644672,1.0004347742399773,-130.03512682854515
6.438731776,1.000424142533762,-130.17398874423554
6.441016832,1.0003866916035737,-130.31250308066635
6.443301888,1.0003246889444537,-130.4503266184766
6.445586944,1.0002420829765328,-130.58707881150616
6.447872,1.0001440304483473,-130.72250319778223
6.450157056,1.0000368698146798,-130.85644218223175
6.452442112,0.9999273858167244,-130.9888332968958
6.454727168,0.9998224881677759,-131.11967624301116
6.457012224,0.9997288769834001,-131.24904132143914
6.45929728,0.9996525457157224,-131.3771501432828
6.461582336,0.9995982677149658,-131.50433074183212
6.463867392,0.9995696163262854,-131.63089497034625
6.466152448,0.9995682624489847,-131.75724827279683
6.468437504,0.9995944970631531,-131.88375932731583
6.47072256,0.9996465869201604,-132.01085811078048
6.473007616,0.9997212141212158,-132.13888594186085
6.475292672,0.9998136601185899,-132.2681091160352
6.477577728,0.9999181267503672,-132.39877632036286
6.479862784,1.0000278279972195,-132.5309939426435
6.48214784,1.0001359244769368,-132.6647968066046
6.484432896,1.000235525032612,-132.80012423386316
6.486717952,1.0003201963289587,-132.9367826787249
6.489003008,1.000384679352934,-133.07454118040502
6.491288064,1.0004247894640048,-133.21306522429137
6.49357312,1.0004380480729536,-133.351955703999
6.495858176,1.0004234961410863,-133.49084639072925
6.498143232,1.0003821603814074,-133.62931163184928
6.500428288,1.0003165111949397,-133.7670404527017
6.502713344,1.0002308444857833,-133.90364994793566
6.5049984,1.0001304329531993,-134.03894394649333
6.507283456,1.000021759875588,-134.1726445180956
6.509568512,0.999911749749225,-134.30476742166152
6.511853568,0.9998073274526059,-134.4353488273845
6.514138624,0.9997151220927334,-134.56448637046867
6.51642368,0.9996410919121201,-134.6924238989948
6.518708736,0.9995898419147459,-134.8194431763151
6.520993792,0.999564672266551,-134.9458961747663
6.523278848,0.999567338230097,-135.0721962307907
6.525563904,0.9995974232337705,-135.1987151907266
6.52784896,0.9996533492320719,-135.32585201361258
6.530134016,0.9997312813328103,-135.45399527400195
6.532419072,0.9998265330347726,-135.58337398782962
6.534704128,0.9999328107194048,-135.71421333682153
6.536989184,1.0000434505074822,-135.84662847010614
6.53927424,1.0001515352452117,-135.98066582429828
6.541559808,1.0002500477124066,-136.11617528044638
6.543844864,1.000332873239949,-136.25300471272797
6.54612992,1.0003945928457547,-136.39091279821474
6.548414976,1.000431356544237,-136.52949478532588
6.550700032,1.0004408116475958,-136.66844225062812
6.552985088,1.0004222554016138,-136.80732436210764
6.555270144,1.000377034469736,-136.94573552931226
6.5575552,1.0003078766176767,-137.08329525799903
6.559840256,1.000219127334769,-137.2197384009293
6.562125312,1.000116506047774,-137.3547745173926
6.564410368,1.0000064284825674,-137.48825539407926
6.566695424,0.9998960269937791,-137.6201094563368
6.56898048,0.9997921333433628,-137.75046760205404
6.571265536,0.9997015532785206,-137.87935334555306
6.573550592,0.9996298396838874,-138.00707115136382
6.575835648,0.99958176974361,-138.1338987876099
6.578120704,0.999560250663323,-138.26022446398994
6.58040576,0.9995668841716677,-138.38642029249814
6.582690816,0.9996009572368407,-138.51292886729775
6.584975872,0.9996605625315432,-138.6401201971675
6.587260928,0.9997418556664279,-138.7683193690361
6.589545984,0.999839654076954,-138.89785623869864
6.59183104,0.9999477847778225,-139.0288663906277
6.594116096,1.0000592726993696,-139.1614701744213
6.596401152,1.0001672213183939,-139.2956412189216
6.598686208,1.0002645899718081,-139.43134545258127
6.600971264,1.0003452793946446,-139.56832080211268
6.60325632,1.0004041630586116,-139.70630884959584
6.605541376,1.0004374624298151,-139.84496512932301
6.607826432,1.0004431294859666,-139.9838997672943
6.610111488,1.0004206064294738,-140.12271855895727
6.612396544,1.0003714579193415,-140.26102088860316
6.6146816,1.0002988397789834,-140.39846162413184
6.616966656,1.000207218963761,-140.5346521158125
6.619251712,1.0001023328203995,-140.66945787125053
6.621536768,0.9999910653234979,-140.802659040115
6.623821824,0.9998803406679662,-140.93425968714212
6.62610688,0.9997772249115268,-141.0642666038398
6.628391936,0.9996882557178635,-141.19291704320312
6.630676992,0.9996192098748905,-141.32038205137755
6.632962048,0.9995743533900413,-141.44701731449598
6.635247104,0.9995565479204435,-141.57318858870792
6.63753216,0.9995670797049776,-141.69931261830905
6.639817216,0.999605220981793,-141.82578569395983
6.642102272,0.9996684610116893,-141.95299536625674
6.644387328,0.9997530129149099,-142.08126191188035
6.646672384,0.9998533054489904,-142.21086465329367
6.64895744,0.9999631355527773,-142.34202972273525
6.651242496,1.000075315247541,-142.4747992114954
6.653527552,1.0001829164444416,-142.6091440215841
6.655812608,1.000279032181619,-142.74494122543547
6.658097664,1.0003575605916086,-142.88206042487408
6.66038272,1.0004134131694655,-143.0201202373025
6.662667776,1.0004431907730615,-143.1588133084636
6.664952832,1.0004448322278756,-143.297744681856
6.667237888,1.000418350303863,-143.43647560130614
6.669522944,1.0003653257868552,-143.57464095571393
6.671808,1.0002890974394314,-143.7118537475759
6.674093056,1.0001945790525375,-143.8478104520599
6.676378112,1.0000877041409024,-143.98232935891355
6.678663168,0.9999752200560126,-144.11525182515
6.680948224,0.9998643223136133,-144.2465064580879
6.68323328,0.999762073999176,-144.3762272528825
6.685518336,0.9996749522729311,-144.504570039389
6.687803392,0.9996085433541131,-144.63176741958182
6.690088448,0.9995670352384216,-144.75818357887138
6.692373504,0.9995530559048215,-144.8842116008209
6.69465856,0.9995676148436653,-145.01018426606043
6.696943616,0.9996097054985137,-145.13662190879353
6.699228672,0.9996767350904643,-145.2638293184152
6.701513728,0.9997644147379298,-145.39214304422893
6.703798784,0.9998671861947791,-145.5218370899982
6.70608384,0.9999784975685482,-145.65309367064998
6.708368896,1.0000913318727622,-145.78600049052613
6.710653952,1.000198512108022,-145.92046895485407
6.712939008,1.0002932305819592,-146.05640034387693
6.715224064,1.0003693298152303,-146.19360616014092
6.71750912,1.0004221747844877,-146.3317064545843
6.719794176,1.0004482115134412,-146.47040438770955
6.722079232,1.0004459903019614,-146.6092862714726
6.724364288,1.000415424607437,-146.7479074255089
6.726649344,1.0003585940240383,-146.88588246554386
6.7289344,1.0002788950441415,-147.02287199599175
6.731219456,1.0001815574877766,-147.15855563628617
6.733504512,1.0000726909526516,-147.29274157384464
6.735789568,0.9999592357711378,-147.42533488692334
6.738074624,0.9998483519457805,-147.55624126386607
6.74035968,0.9997471224546302,-147.6856431578925
6.742644736,0.9996619456212306,-147.81363710893163
6.744929792,0.999598279073005,-147.94055218921682
6.747214848,0.9995601997771763,-148.06675626489022
6.749499904,0.9995501465861069,-148.19257107245625
6.75178496,0.9995687628319195,-148.31843657610423
6.754070016,0.9996148852627872,-148.44475846146221
6.756355072,0.9996856226134196,-148.57196020193473
6.75864064,0.9997764291548306,-148.70030659718546
6.760925696,0.999881503475901,-148.83007543430696
6.763210752,0.999994356895937,-148.96143830681223
6.765495808,1.0001075776356705,-149.09442198521577
6.767780864,1.0002142184312388,-149.2290131873701
6.77006592,1.0003073109399883,-149.36509064368894
6.772350976,1.0003810526312524,-149.50230760325687
6.774636032,1.0004306824667601,-149.64045653389402
6.776921088,1.0004530798209592,-149.77910024628125
6.779206144,1.0004467354471245,-149.917875157856
6.7814912,1.0004120557062415,-150.0563518592581
6.783776256,1.0003513175116499,-150.1941191784121
6.786061312,1.000268238105783,-150.33084716806636
6.788346368,1.000168218588921,-150.46622863223126
6.790631424,1.0000574882758022,-150.60007950309975
6.79291648,0.9999430337770919,-150.73227848800414
6.795201536,0.9998323241908577,-150.86284545726224
6.797486592,0.9997321806568296,-150.99184979583876
6.799771648,0.9996491500519096,-151.11955706239294
6.802056704,0.9995883890959748,-151.24615921214178
6.80434176,0.9995538383236781,-151.37206944495514
6.806626816,0.9995477278967647,-151.49767885871404
6.808911872,0.9995704867933392,-151.62341691423114
6.811196928,0.9996205730813587,-151.74965587249062
6.813481984,0.999694980874785,-151.8768014143862
6.81576704,0.9997888024995878,-152.00515227481543
6.818052096,0.9998963079491332,-152.13498696035182
6.820337152,1.0000104273313264,-152.26643694387985
6.822622208,1.0001240451045736,-152.39951963939617
6.824907264,1.0002299348204604,-152.53419508341548
6.82719232,1.0003212942202813,-152.67030549904294
6.829477376,1.0003924436953056,-152.80755423479727
6.831762432,1.0004387821835823,-152.94568674421689
6.834047488,1.0004573499115885,-153.08428390843602
6.836332544,1.0004469807435132,-153.222944072605
6.8386176,1.0004082534004342,-153.36121907339134
6.840902656,1.0003436313306167,-153.49876401991034
6.843187712,1.0002571703768077,-153.63520312873354
6.845472768,1.0001545136158823,-153.77025987839775
6.847757824,1.0000419759685772,-153.90372585841828
6.85004288,0.9999268255604237,-154.03553050429437
6.852327936,0.9998162671690899,-154.16571542964422
6.854612992,0.99971746280862,-154.2943246371833
6.856898048,0.9996365562623762,-154.4216164977518
6.859183104,0.999578921460287,-154.54792831651577
6.86146816,0.9995479500830042,-154.67356986918549
6.863753216,0.9995458769017281,-154.7989640970179
6.866038272,0.9995727302617221,-154.9245209660773
6.868323328,0.9996268487068088,-155.0506639022004
6.870608384,0.9997048185187478,-155.17775751041387
6.87289344,0.9998016673791003,-155.30611591278057
6.875178496,0.9999112643731946,-155.4359525130769
6.877463552,1.0000265775571497,-155.56747807648466
6.879748608,1.000140430716771,-155.70060628070505
6.882033664,1.000245433544471,-155.83530562697064
6.88431872,1.0003350597720029,-155.9714792801051
6.886603776,1.000403398437395,-156.10875891108716
6.888888832,1.0004463524368004,-156.2468493506525
6.891173888,1.000460969172255,-156.38536114430363
6.893458944,1.0004464800340176,-156.523858384714
6.895744,1.0004035914566138,-156.66190671979226
6.898029056,1.0003351193441021,-156.79919546273138
6.900314112,1.000245364269649,-156.93530124063574
6.902599168,1.0001401846007203,-157.0699894903085
6.904884224,1.0000259852175413,-157.20303072794408
