freq,mag,phase
6.0,0.9996741291825098,134.4092777412926
6.002287616,0.9998294330899543,134.26772502420133
6.004575232,0.999996130081736,134.12391531659372
6.006862848,1.0001635074126356,133.97775080184647
6.009150464,1.0003212073092762,133.82926063053438
6.011438592,1.000458915844786,133.67867288527333
6.013726208,1.0005680444075882,133.52632024298998
6.016013824,1.0006417489260493,133.37271845942965
6.01830144,1.0006753183607786,133.21838978793926
6.020589056,1.0006665087888604,133.06393547254459
6.022876672,1.0006158470771298,132.9099274930558
6.025164288,1.0005266866086104,132.75702461309172
6.027451904,1.0004043523965915,132.60567567924952
6.029740032,1.0002565943895065,132.45636386003605
6.032027648,1.000093074703868,132.3093533452452
6.034315264,0.9999236358385042,132.16480149966165
6.03660288,0.9997593142070522,132.02273988827758
6.038890496,0.999610562838561,131.88302075115345
6.041178112,0.9994866069719377,131.74532366753326
6.043465728,0.999395532945241,131.60926595507937
6.045753344,0.9993430675056771,131.4742909121085
6.04804096,0.9993325526148865,131.3398330879384
6.050329088,0.9993647272972439,131.2052869402485
6.052616704,0.9994374821027541,131.0700406276596
6.05490432,0.9995464589653612,130.9335033759434
6.057191936,0.999684656120771,130.79524534279412
6.059479552,0.9998433184069128,130.65484229603223
6.061767168,1.0000121893034417,130.5121539890079
6.064054784,1.0001810490795608,130.36702970920157
6.0663424,1.0003389286130067,130.21958771403155
6.068630016,1.00047583249417,130.07009703766485
6.070918144,1.0005830264158777,129.91885115394638
6.07320576,1.0006537516118257,129.76637859912086
6.075493376,1.0006835712876783,129.6131993715073
6.077780992,1.0006705620765661,129.4599637305956
6.080068608,1.0006154535785676,129.30728317283834
6.082356224,1.0005215471834912,129.15568855632856
6.08464384,1.0003951140201544,129.00577288859472
6.086931456,1.0002437468223226,128.8579141395954
6.089219584,1.000077232766136,128.7124003292856
6.0915072,0.9999060873565722,128.5694116130356
6.093794816,0.9997410678502672,128.42889555055268
6.096082432,0.9995925889914075,128.29075228454238
6.098370048,0.9994702712340698,128.15462885999742
6.100657664,0.9993817339119445,128.02007019166894
6.10294528,0.9993325884382785,127.88654908759275
6.105232896,0.999326244781062,127.75353896309403
6.107520512,0.9993629626001187,127.62033005524489
6.10980864,0.9994403749585159,127.48633346939882
6.112096256,0.9995538025482582,127.35102613131673
6.114383872,0.999695856740018,127.21391461265966
6.116671488,0.9998577281937775,127.07461431581429
6.118959104,1.0000292042396515,126.932970564515
6.12124672,1.000199220977104,126.78888654081523
6.123534336,1.0003571635950887,126.64247491960059
6.125821952,1.0004930184019936,126.49398137868756
6.128109568,1.0005980301066781,126.34379809460704
6.130397696,1.0006657533232528,126.19239359226445
6.132685312,1.000691686128049,126.04031628523494
6.134972928,1.0006742761483851,125.88827153679553
6.137260544,1.0006143662285514,125.7368259456552
6.13954816,1.0005159565665092,125.58655582119458
6.141835776,1.0003851449555239,125.43801755469683
6.144123392,1.0002300844820289,125.29157983595972
6.146411008,1.0000607619520197,125.14756944543318
6.148699136,0.9998878177384432,125.00606174529709
6.150986752,0.999722183762414,124.86709727038826
6.153274368,0.9995742040145617,124.73048826941637
6.155561984,0.9994536483213713,124.59581507703761
6.1578496,0.9993678352964631,124.46275393238629
6.160137216,0.99932256209925,124.33069461226911
6.162424832,0.9993204164076547,124.19900572547698
6.164712448,0.9993618612370835,124.06709398995784
6.167000064,0.9994438847202899,123.9343559923315
6.169288192,0.9995619537474301,123.80017114023005
6.171575808,0.9997080501770449,123.66416888566874
6.173863424,0.9998732336259653,123.52588938034931
6.17615104,1.0000468578635713,123.38525898002177
6.178438656,1.0002180216593395,123.24214314301524
6.180726272,1.000375919376714,123.09667574508352
6.183013888,1.0005104857268683,122.94913894677269
6.185301504,1.0006132554532707,122.79995478161932
6.18758912,1.000677464282812,122.64957180748081
6.189877248,1.0006993078128699,122.49861848344085
6.192164864,1.0006772804248305,122.34767751790315
6.19445248,1.000612610917677,122.19744192816275
6.196740096,1.0005093293475888,122.04846850642225
6.199027712,1.0003742653084824,121.9012738301143
6.201315328,1.000215664959949,121.75623330210895
6.203602944,1.0000434637375346,121.61364986356517
6.20589056,0.9998687750730453,121.47363343990516
6.208178688,0.9997026544872454,121.33617801213035
6.210466304,0.9995555109828124,121.20101075900621
6.21275392,0.9994368425458395,121.0678455516172
6.215041536,0.9993539614060347,120.93618697848687
6.217329152,0.9993125377288883,120.80549062296582
6.219616768,0.9993149021655554,120.67514458180872
6.221904384,0.9993610471401018,120.54448957479984
6.224192,0.9994482788220994,120.41287724853612
6.226479616,0.9995708997965848,120.27981373885022
6.228767744,0.9997210592518926,120.1448336286688
6.23105536,0.9998894430257936,120.00757412934233
6.233342976,1.000065352753562,119.8678316805253
6.235630592,1.0002376711953003,119.7256400420999
6.237918208,1.0003953515251318,119.58110277071658
6.240205824,1.0005285403680508,119.43445998990258
6.24249344,1.0006285673850026,119.28619588079722
6.244781056,1.0006893808327448,119.13680026404201
6.247068672,1.0007067687790463,118.9868596016654
6.2493568,1.0006799044987826,118.83705195539439
6.251644416,1.0006101935959537,118.68798880803496
6.253932032,1.0005022884223964,118.54023643903021
6.256219648,1.000362700055667,118.39434248965861
6.258507264,1.0002003650034186,118.25068068535235
6.26079488,1.0000255404311105,118.10948171320037
6.263082496,0.999849162291636,117.97090664755028
6.265370112,0.9996826639906312,117.83487927321278
6.26765824,0.9995364592190443,117.7011794294186
6.269945856,0.999419908624799,117.56941299803258
6.272233472,0.9993402708527608,117.43915100035667
6.274521088,0.9993029430907497,117.30979044476375
6.276808704,0.9993100614943422,117.18066259550257
6.27909632,0.9993612327839974,117.05120954901246
6.281383936,0.9994534582712991,116.92072761985175
6.283671552,0.9995807216772181,116.78871745448895
6.285959168,0.9997351577692194,116.65468485989524
6.288247296,0.9999065978055728,116.51833963203718
6.290534912,1.0000846816395703,116.37948106263065
6.292822528,1.000257786542713,116.23813762010589
6.295110144,1.0004151158964703,116.09443528258046
6.29739776,1.0005466738193038,115.94868327341366
6.299685376,1.0006439694829483,115.80131385810401
6.301972992,1.0007009493878725,115.6528246983418
6.304260608,1.0007138812094198,115.50387985340087
6.306548224,1.000681873607275,115.35513227100024
6.308836352,1.0006071223272082,115.20718380903772
6.311123968,1.0004942480117178,115.06063413551647
6.313411584,1.0003501373981887,114.91600611065721
6.3156992,1.0001840175943884,114.77367274493896
6.317986816,1.0000066216313845,114.6338646840563
6.320274432,0.999828848490047,114.49671245600922
6.322562048,0.9996621355038029,114.36208341579491
6.324849664,0.9995170332735329,114.22976778569712
6.327137792,0.9994026837245648,114.09937548626314
6.329425408,0.9993266671953606,113.97045381779257
6.331713024,0.9992934438083946,113.84236737553816
6.33400064,0.9993055423254883,113.71447235873976
6.336288256,0.9993620641683654,113.58613252239671
6.338575872,0.9994593338555718,113.45669170681074
6.340863488,0.9995913740044413,113.3256727384858
6.343151104,0.999749868339399,113.19253258532814
6.34543872,0.9999246580386695,113.05704815813476
6.347726848,1.0001046650953076,112.91902749173408
6.350014464,1.0002786153225665,112.77848756395052
6.35230208,1.0004354425247732,112.63554680151437
6.354589696,1.0005650292104875,112.49058408544643
6.356877312,1.0006593419798417,112.34403753946158
6.359164928,1.0007122676051392,112.19646659079392
6.361452544,1.0007204971713866,112.04849178044147
6.36374016,1.0006834757489182,111.90074639033809
6.366027776,1.0006033213363168,111.75389527063395
6.368315904,1.00048530105475,111.60853073759527
6.37060352,1.0003367396834695,111.4650973538911
6.372891136,1.0001669957769834,111.32407250435455
6.375178752,0.999986818941374,111.18559926500853
6.377466368,0.9998078532011684,111.04980142675309
6.379753984,0.9996409403753245,110.9165285093339
6.3820416,0.9994971554524855,110.78558924244113
6.384329216,0.9993854465737737,110.65655610392544
6.386617344,0.9993130451057326,110.52890728344795
6.38890496,0.9992844323026818,110.40202060273029
6.391192576,0.9993015957611572,110.27527796525908
6.393480192,0.9993633534701998,110.14801813052439
6.395767808,0.9994659079651901,110.01957085111847
6.398055424,0.999602848921932,109.88946616543586
6.40034304,0.9997655652913741,109.75719112139814
6.402630656,0.9999434260705113,109.62250031929887
6.404918272,1.0001254411503622,109.48523090384114
6.4072064,1.0002999316290968,109.34539512081346
6.409494016,1.0004560496042065,109.20322784282955
6.411781632,1.0005835612962433,109.05900225456409
6.414069248,1.0006745542988693,108.91324352153786
6.416356864,1.0007234303325527,108.76649506581725
6.41864448,1.000726565596807,108.61943486526826
6.420932096,1.0006841142617149,108.47266395755362
6.423219712,1.0005985971078144,108.3268642522288
6.425507328,1.0004753891616813,108.1826150620998
6.427795456,1.0003223442236737,108.04043513391943
6.430083072,1.0001489521182538,107.90062095051051
6.432370688,0.9999663407392319,107.7634852091693
6.434658304,0.9997860013809513,107.62898133145511
6.43694592,0.9996192417185029,107.49706720273934
6.439233536,0.9994770899028671,107.36744690472035
6.441521152,0.9993681297319892,107.23964529006864
6.443808768,0.9992995292077561,107.11324967536113
6.446096896,0.9992756802892258,106.98756270138804
6.448384512,0.9992981122937232,106.86189238933598
6.450672128,0.9993654369908668,106.7356353829314
6.452959744,0.9994734809689512,106.6081604710448
6.45524736,0.9996153535925485,106.47887903717795
6.457534976,0.9997820567179707,106.34738788504787
6.459822592,0.9999631018488135,106.21342478724597
6.462110208,1.0001468838062932,106.0768481248055
6.464397824,1.000322007462213,105.93770772777775
6.466685952,1.0004770122003135,105.79618449363653
6.468973568,1.000602297394971,105.65269860969067
6.471261184,1.0006899106085092,105.5076740171305
6.4735488,1.0007342318820096,105.36172166745665
6.475836416,1.0007322448236122,105.21551264059465
6.478124032,1.0006842432012706,105.06968439487714
6.480411648,1.000593223766822,104.92492353619566
6.482699264,1.0004647484981097,104.78175293863443
6.48498688,1.0003070366626141,104.64070756975684
6.487275008,1.0001300904836368,104.50212897923286
6.489562624,0.9999449664770598,104.36624110237055
6.49185024,0.9997636062585565,104.2330090239997
6.494137856,0.9995973057444166,104.10240845254923
6.496425472,0.9994567494186373,103.97405123958177
6.498713088,0.9993508315328479,103.84753652763666
6.501000704,0.9992863274848993,103.72230020219085
6.50328832,0.9992674483147839,103.59770452428675
6.505576448,0.9992954169689969,103.47309365164844
6.507864064,0.999368417246943,103.34780857360728
6.51015168,0.9994819228975946,103.22117579399725
6.512439296,0.9996286836184127,103.09269725171222
6.514726912,0.9997994594969501,102.96194991915408
6.517014528,0.9999835658649747,102.82863226759369
6.519302144,1.000169152807537,102.69271747688285
6.52158976,1.0003444303390363,102.554184803153
6.523877376,1.000498326387386,102.41328622346086
6.526165504,1.0006210412029064,102.27041918201189
6.52845312,1.0007049283487706,102.1260950734235
6.530740736,1.0007444929820044,101.98089859295433
6.533028352,1.0007371800970255,101.83551028771639
6.535315968,1.0006836023536974,101.69057620727834
6.537603584,1.000586904384061,101.54678599424017
6.5398912,1.0004530822854605,101.4046745123367
6.542178816,1.0002908310403191,101.26476191457893
6.544466432,1.000110325083232,101.12737537713679
6.54675456,0.9999228323451927,100.99268421174325
6.549042176,0.999740574512847,100.8607386706825
6.551329792,0.9995746491173881,100.73136608558923
6.553617408,0.9994361680705082,100.6042448211565
6.555905024,0.9993334204184855,100.47891783177715
6.55819264,0.9992733654131895,100.3548144234381
6.560480256,0.9992596660095362,100.2312535143469
6.562767872,0.9992933059890408,100.10765351025557
6.565056,0.9993721422162388,99.98325328995831
6.567343616,0.9994911558988747,99.85742144256987
6.569631232,0.9996429755814813,99.72967523182113
6.571918848,0.999817937646443,99.59958553755025
6.574206464,1.0000048894711409,99.46690857337366
6.57649408,1.000191981613312,99.33153605775084
6.578781696,1.000367358400348,99.19355595589768
6.581069312,1.0005199774783677,99.05327954946058
6.583356928,1.0006400197455114,98.91096886846869
6.585645056,1.0007199426758415,98.76731509852944
6.587932672,1.0007545546916337,98.62279919619965
6.590220288,1.0007418613326247,98.47818728220999
6.592507904,1.0006822182803599,98.33410954241823
6.59479552,1.000579732557891,98.1912483708035
6.597083136,1.000440623954368,98.05016927070848
6.599370752,1.0002737182723036,97.91136530960048
6.601658368,1.0000897068354202,97.77509167372638
6.603945984,0.9999001217004513,97.64162558767377
6.606234112,0.9997169815573442,97.51087822451778
6.608521728,0.9995519211264404,97.3826942482129
6.610809344,0.9994154946954635,97.25677543468288
6.61309696,0.9993163446030859,97.13258939147637
6.615384576,0.9992608007843,97.00955380492326
6.617672192,0.999252488090258,96.88704474562986
6.619959808,0.9992920235627887,96.76433278474416
6.622247424,0.9993767552630153,96.64076824387917
6.624535552,0.9995015285416028,96.51568919358643
6.626823168,0.9996583612608316,96.38861987047397
6.629110784,0.9998372894551143,96.2591326930297
6.6313984,1.0000270513991942,96.12699156100257
6.633686016,1.0002156238046123,95.99213597846656
6.635973632,1.00039092458146,95.85465727541403
6.638261248,1.0005418064117728,95.7148711245158
6.640548864,1.0006589941804853,95.57312409326707
6.64283648,1.0007346563756934,95.43004736572118
6.645124608,1.000764147030559,95.28619431004311
6.647412224,1.0007456184625172,95.14232046901745
6.64969984,1.0006799331139808,94.99908379915485
6.651987456,1.000571512805885,94.85712086362633
6.654275072,1.0004270702734464,94.71703640640526
6.656562688,1.000255688596441,94.57928364349827
6.658850304,1.0000681166235281,94.44414897676984
6.66113792,0.9998764258887722,94.31182682937283
6.663426048,0.9996926724857553,94.18224474915218
6.665713664,0.9995286697275398,94.05522196822895
6.66800128,0.9993946930263375,93.93041795156654
6.670288896,0.9992992174906562,93.80733737166192
6.672576512,0.9992485256361645,93.68532784741534
6.674864128,0.999245875328781,93.5637773579986
6.677151744,0.999291304084557,93.44193438167119
6.67943936,0.9993822809523373,93.31911190737267
6.681726976,0.9995128057564163,93.19475291520118
6.684015104,0.9996746209706505,93.06827997443398
6.68630272,0.9998575373430898,92.93931630859926
6.688590336,1.000050034711769,92.80766173095556
6.690877952,1.0002398242140003,92.67329017494143
6.693165568,1.000414885904506,92.53627014567398
6.695453184,1.0005639803269695,92.39692121437308
6.6977408,1.000677873149981,92.2556805995576
6.700028416,1.0007492114116951,92.11314176635489
6.702316032,1.0007733608982927,91.96992304766431
6.70460416,1.0007486733928348,91.82673547937516
6.706891776,1.0006770575637236,91.6842610585061
6.709179392,1.0005624470118988,91.54317988483533
6.711467008,1.0004126477713453,91.40402429366752
6.713754624,1.0002366149455761,91.26729578496662
6.71604224,1.0000457640372074,91.13326225848014
6.718329856,0.9998521921552201,91.00201813238677
6.720617472,0.9996680879956998,90.8735926658357
6.7229056,0.9995052099198399,90.74769058847666
6.725193216,0.9993736906924322,90.62397730899575
6.727480832,0.9992823196146257,90.50193662480204
6.729768448,0.9992367912336031,90.3809146172589
6.732056064,0.9992399164014364,90.26022999536481
6.73434368,0.9992915683577573,90.13921544087403
6.736631296,0.999388799046895,90.01713256699915
6.738918912,0.9995250128164334,89.89337477633204
6.741206528,0.9996918538436543,89.76743491507072
6.743494656,0.9998788268709753,89.63895536583826
6.745782272,1.0000738635645459,89.5077483142421
6.748069888,1.0002646727843658,89.37373432826564
6.750357504,1.0004391585427543,89.2371023938196
6.75264512,1.0005862397445788,89.09815621231802
6.754932736,1.0006966387805905,88.95737475153743
6.757220352,1.00076323221412,88.8153197849747
6.759507968,1.0007818525207768,88.67266680354997
6.761795584,1.0007511630755674,88.53015991537636
6.764083712,1.0006729552411842,88.38846303410979
6.766371328,1.0005525135931268,88.24818258104722
6.768658944,1.0003970774646542,88.10997793373528
6.77094656,1.0002165262262617,87.9742139828817
6.773234176,1.0000225675655339,87.84120714736852
6.775521792,0.9998270642212362,87.71107848321596
6.777809408,0.9996427640442663,87.58370912383032
6.780097024,0.9994811931343199,87.45890239885158
6.782385152,0.9993527712386704,87.33625789379312
6.784672768,0.9992656256415731,87.21520468570459
6.786960384,0.9992252186037222,87.09511654870155
6.789248,0.9992344503553773,86.97527227244638
6.791535616,0.9992925467677131,86.85497320288255
6.793823232,0.9993960066526454,86.73354551807284
6.796110848,0.9995381629692058,86.61035617433282
6.798398464,0.9997100225403196,86.48491460196864
6.80068608,0.9999007660067843,86.35682961679068
6.802974208,1.0000983956305654,86.22595744388147
6.805261824,1.0002902195358248,86.09230517296561
6.80754944,1.0004639214387858,85.95600965699941
6.809837056,1.000608753822121,85.81741045205023
6.812124672,1.0007154006750376,85.67702959989627
6.814412288,1.0007770743344526,85.53543853021529
6.816699904,1.0007898446676573,85.39335612166717
6.81898752,1.0007527734007853,85.25141125127797
6.821275136,1.0006682600028405,85.11040676423364
6.823563264,1.0005415727379998,84.97098087431614
6.82585088,1.0003806869759504,84.83362205943747
6.828138496,1.0001956650181942,84.69881661715534
6.830426112,0.9999984114450303,84.56683940810443
6.832713728,0.9998014633568043,84.43771848720723
6.835001344,0.9996171073549699,84.31142746569188
6.83728896,0.9994570925672901,84.18764793840485
6.839576576,0.9993318454912329,84.06600027077691
6.841864704,0.999249179506026,83.94590279033619
6.84415232,0.9992144239739398,83.82667900642907
6.846439936,0.9992297481711148,83.70760392335193
6.848727552,0.9992944466981692,83.58800568959137
6.851015168,0.9994042471634953,83.46715564385974
6.853302784,0.9995523172820014,83.34445585558204
6.8555904,0.9997292311635777,83.21944354738709
6.857878016,0.9999238011042416,83.09172602683502
6.860165632,1.0001236399790552,82.96115926308619
6.86245376,1.0003160665963124,82.82776824489041
6.864741376,1.0004889432839448,82.69178621449493
6.867028992,1.0006311559169534,82.55350357770264
6.869316608,1.000733853115982,82.41345307175247
6.871604224,1.000790380514685,82.2722634466206
6.87389184,1.000797184216945,82.13067580807456
6.876179456,1.0007535537761432,81.98934611477326
6.878467072,1.0006623765657479,81.84901046660104
6.880754688,1.0005295178755382,81.71029931369966
6.883042816,1.0003631517457878,81.57384514748739
6.885330432,1.0001738235795938,81.43996359246934
6.887618048,0.9999735171524541,81.30891707886825
6.889905664,0.9997750858499355,81.18081870950067
6.89219328,0.9995909525078035,81.05554596173883
6.894480896,0.9994329032763515,80.93276522576856
6.896768512,0.9993110533334002,80.8120543034687
6.899056128,0.99923304664599,80.69282687370122
6.901344256,0.999204140747028,80.5744155392911
6.903631872,0.999225954908417,80.45608958982885
6.905919488,0.999297352161971,80.3371058597637
6.908207104,0.9994137065341145,80.21679117535568
6.91049472,0.999567671318344,80.0945231339124
6.912782336,0.9997495319314399,79.96984751935733
6.915069952,0.9999477614801993,79.84242537972128
6.917357568,1.0001497933527925,79.7121256772731
6.919645184,1.000342689683109,79.5789733863172
6.921933312,1.0005144135936517,79.44317652579265
6.924220928,1.0006539266322536,79.30513992433886
6.926508544,1.0007523471404127,79.1653962409889
6.92879616,1.0008034028113144,79.02459017438964
