freq,mag,phase
6.0,0.9998798034593264,42.980941859487814
6.015904768,0.9998672709457633,42.61801972777713
6.031809024,0.9998603813298534,42.25520420046786
6.047713792,0.9998592036107949,41.89242187196965
6.063618048,0.9998638045601886,41.52959208770783
6.079522816,0.9998740225643161,41.16667928411175
6.095427584,0.9998893733248865,40.80361475499265
6.11133184,0.999909241384593,40.440323500855655
6.127236608,0.9999327749608213,40.076796149032624
6.143141376,0.9999590754214593,39.712922335288354
6.159045632,0.9999868204486557,39.34869202447273
6.1749504,1.0000149625951942,38.98419922319643
6.190854656,1.0000423489597152,38.61932937231667
6.206759424,1.0000676134049473,38.25413460877726
6.222664192,1.0000899869735573,37.888632911939474
6.238568448,1.000108188469206,37.522893281973474
6.254473216,1.0001217588431124,37.15694562621002
6.270377984,1.000129769046575,36.79086414667157
6.28628224,1.0001321734246202,36.42471246603053
6.302187008,1.0001286493372803,36.05853477269551
6.318091264,1.0001194167161542,35.69246080963432
6.333996032,1.0001048771615333,35.32651032678922
6.3499008,1.0000856542954542,34.96075265298395
6.365805056,1.0000624376249545,34.59520019134651
6.381709824,1.0000363700501527,34.22995992678111
6.39761408,1.0000085552288938,33.865037327479726
6.413518848,0.9999799457752582,33.50039595388126
6.429423616,0.999952075482541,33.1360693516287
6.445327872,0.9999258565266416,32.7721278683083
6.46123264,0.9999026431440604,32.40844393981252
6.477137408,0.9998831571927067,32.04497716716979
6.493041664,0.9998685563535762,31.681733651403682
6.508946432,0.9998592248642818,31.318596139620382
6.524850688,0.9998556083367351,30.95555518770348
6.540755456,0.9998579225166465,30.59249883779441
6.556660224,0.9998660930194824,30.22937029468393
6.57256448,0.9998797807639349,29.866076896603445
6.588469248,0.9998983104545972,29.502626010266976
6.604373504,0.9999210867929547,29.138892279576705
6.620278272,0.9999469389132438,28.774882315718266
6.63618304,0.9999748537935645,28.41053189688762
6.652087296,1.0000037196531484,28.045819765795965
6.667992064,1.0000321606880467,27.680744654505116
6.683896832,1.0000591342551541,27.31542207612105
6.699801088,1.0000834188571832,26.94968800630947
6.715705856,1.0001038527985404,26.583695762690898
6.731610112,1.0001197244275102,26.217464148761074
6.74751488,1.0001303042902445,25.85110400436561
6.763419648,1.0001351637504667,25.484624597120188
6.779323904,1.0001339793523498,25.1181125951132
6.795228672,1.000126918918456,24.751630673036896
6.81113344,1.0001140988336623,24.385272258412048
6.827037696,1.000096260868379,24.019040944308102
6.842942464,1.0000740404898367,23.653055832626425
6.85884672,1.000048398268355,23.287349519846362
6.874751488,1.0000205055555025,22.921943132865177
6.890656256,0.9999912893168706,22.556907643694995
6.906560512,0.9999622189016429,22.19213416607592
6.92246528,0.9999345792538691,21.82772185219966
6.938369536,0.9999093801770943,21.463635671459492
6.954274304,0.9998877111791222,21.09979493902876
6.970179072,0.9998705459784885,20.73617502453376
6.986083328,0.9998588037768221,20.37272317415677
7.001988096,0.9998527337586439,20.00935885737513
7.017892864,0.9998526083642729,19.646020328033636
7.03379712,0.9998585638894841,19.282671243853006
7.049701888,0.999870324166892,18.91918278696053
7.065606144,0.9998874360369361,18.55547168577085
7.081510912,0.9999091818619416,18.191576506456524
7.09741568,0.9999344888340489,17.82737411765768
7.113319936,0.9999625517840038,17.462846948946986
7.129224704,0.9999918716257313,17.097961747712215
7.145129472,1.0000214830377587,16.732699012822604
7.161033728,1.0000498543707896,16.367095453557845
7.176938496,1.000076025485177,16.001166874992393
7.192842752,1.0000987645398778,15.634937118106293
7.20874752,1.0001171172918393,15.268450135778815
7.224652288,1.0001302496712987,14.90173915791214
7.240556544,1.000137644582536,14.534896405441536
7.256461312,1.0001389360830075,14.168015725921025
7.272365568,1.000134110771169,13.801139958962967
7.288270336,1.00012337261223,13.434325305808883
7.304175104,1.0001070219080312,13.067659033880606
7.32007936,1.0000859457734468,12.70120236853844
7.335984128,1.0000609035264683,12.335024339680714
7.351888896,1.00003301811038,11.969121377841255
7.367793152,1.000003396643396,11.603555429425112
7.38369792,0.9999733795592886,11.238378431120024
7.399602176,0.9999441015518845,10.87346377099939
7.415506944,0.9999169989765522,10.508931454151178
7.431411712,0.999893166905432,10.144656763288165
7.447315968,0.9998735596188729,9.78065289380765
7.463220736,0.9998590849679772,9.416795510270873
7.479125504,0.9998504324461694,9.05314573468576
7.49502976,0.9998478198473368,8.68950873602001
7.510934528,0.9998514021767644,8.325844060119842
7.526838784,0.9998612052305264,7.962100592648416
7.542743552,0.9998766982866805,7.598185166413787
7.55864832,0.9998971186958503,7.23407038032603
7.574552576,0.9999218010275118,6.869654000451162
7.590457344,0.9999496151769789,6.504938391317324
7.6063616,0.9999794174209052,6.139853859594671
7.622266368,1.0000100026843703,5.774378858607723
7.638171136,1.0000398645528061,5.408555993183945
7.654075392,1.000067882665282,5.042378509044411
7.66998016,1.000092836987367,4.675892785363379
7.685884928,1.0001136678565876,4.309055197716915
7.701789184,1.000129534656832,3.94203789154298
7.717693952,1.000139580744959,3.574850843809834
7.733598208,1.0001435347234104,3.2075591702701414
7.749502976,1.0001411530612045,2.840228002809982
7.765407744,1.000132432022663,2.472966479669085
7.781312,1.0001179541512881,2.1058561049572684
7.797216768,1.0000981595952225,1.7388980831427387
7.813121024,1.0000738151162936,1.3721712421778582
7.829025792,1.0000461338106048,1.0057806002841103
7.84493056,1.0000161339067035,0.6396998642221592
7.860834816,0.9999853265309777,0.2739859367993302
7.876739584,0.9999547208966921,-0.09139286175800905
7.892644352,0.9999256938460268,-0.45645023462300754
7.908548608,0.9998996217266543,-0.8211779309691493
7.924453376,0.999877419968963,-1.1856236738490056
7.940357632,0.9998603774409743,-1.5498240537986536
7.9562624,0.9998488439507505,-1.9139154044831965
7.972167168,0.9998435418282228,-2.2778820509609328
7.988071424,0.9998447662231477,-2.6418527120461976
8.003976192,0.9998522989758105,-3.0058544231241253
8.01988096,0.9998657657981792,-3.370041482403748
8.035785216,0.9998849570577393,-3.7343910145258756
8.051689984,0.9999087600332643,-4.099026690314325
8.06759424,0.9999362759612409,-4.463971189133817
8.083499008,0.9999663690352983,-4.829284030685057
8.099403776,0.9999976562290775,-5.194967437432985
8.115308032,1.0000290086550225,-5.5610341912495915
8.1312128,1.000058779254982,-5.927474889447413
8.147117056,1.000086060288339,-6.2942646249195535
8.163021824,1.0001094263125685,-6.661367833016466
8.178926592,1.0001279316925387,-7.028731285578614
8.194830848,1.0001408489532335,-7.3963315506406335
8.210735616,1.00014754008338,-7.764037848473368
8.226640384,1.0001477860090309,-8.131816514028571
8.24254464,1.0001413952395348,-8.499536312518599
8.258449408,1.000128843428077,-8.867179030961287
8.274353664,1.000110561705522,-9.234671561474523
8.290258432,1.0000871719622042,-9.601914566195102
8.3061632,1.0000599045106553,-9.968883490779898
8.322067456,1.0000297700194625,-10.335506325080605
8.337972224,0.9999980994675235,-10.701780379912767
8.353876992,0.9999661929321886,-11.06767513330303
8.369781248,0.9999352833100685,-11.433264073797519
8.385686016,0.9999070835850081,-11.798474729532073
8.401590272,0.9998824446883648,-12.163384661551971
8.41749504,0.9998624838152852,-12.528051394725034
8.433399808,0.999848115405519,-12.892519724999467
8.449304064,0.9998400038183362,-13.256871789911484
8.465208832,0.99983838439932,-13.62118023363242
8.481113088,0.9998435572295147,-13.985510700453764
8.497017856,0.9998550185053504,-14.349948523419398
8.512922624,0.999872595282069,-14.714562994454178
8.52882688,0.9998953091815668,-15.07944276814823
8.544731648,0.9999223042092337,-15.444643859150492
8.560636416,0.999952537450034,-15.810193293058884
8.576540672,0.9999845030714928,-16.17612401966659
8.59244544,1.0000170414243357,-16.542451367431994
8.608350208,1.0000487113120444,-16.909161768245966
8.624254976,1.000078243833506,-17.276242459867515
8.64015872,1.0001041716829902,-17.64369329498536
8.656063488,1.000125479562086,-18.011430728920583
8.671968256,1.0001412905338773,-18.379425206871773
8.687873024,1.0001510134180969,-18.747550735047252
8.703777792,1.0001539666646286,-19.115760588706653
8.719681536,1.0001501292679909,-19.484027811472437
8.735586304,1.000139744384972,-19.852208995723597
8.751491072,1.0001230594321855,-20.22024075315312
8.76739584,1.0001009315959357,-20.58803091082338
8.783300608,1.0000742989862286,-20.95560025155371
8.799204352,1.0000440975607132,-21.32279783752534
8.81510912,1.0000118059957679,-21.689670483961294
8.831013888,0.9999787239238095,-22.056143881546046
8.846918656,0.9999461058650733,-22.422265728714695
8.862823424,0.9999156460427611,-22.788006843511447
8.878727168,0.9998883808947767,-23.15344039445211
8.894631936,0.9998655420161919,-23.51859102872874
8.910536704,0.9998482678958023,-23.883493482229795
8.926441472,0.9998370396186964,-24.24824494543946
8.94234624,0.9998325188979297,-24.612934475621365
8.958251008,0.9998350544275061,-24.977606778609303
8.974154752,0.9998443441661646,-25.342352577213322
8.99005952,0.9998599872367193,-25.70728581407003
9.005964288,0.9998814592699387,-26.072438441936967
9.021869056,0.9999078759185205,-26.437869132053798
9.037773824,0.9999379280612344,-26.803670067077405
9.053677568,0.9999705102933986,-27.169878775804385
9.069582336,1.0000042994429899,-27.536464447286875
9.085487104,1.0000377193394845,-27.903467379059038
9.101391872,1.0000693342992437,-28.270885750595756
9.11729664,1.0000979009627067,-28.63866912893498
9.133200384,1.0001221628611883,-29.006784288845353
9.149105152,1.0001410476429726,-29.37518563653609
9.16500992,1.0001537334837811,-29.74375344922687
9.180914688,1.000159656861441,-30.112475291812338
9.196819456,1.0001587224310444,-30.481224476588554
9.2127232,1.000150658792133,-30.84996994933929
9.228627968,1.0001360483742439,-31.218578948792953
9.244532736,1.000115324019575,-31.587001071846085
9.260437504,1.0000893667668167,-31.955164268395315
9.276342272,1.0000593911493512,-32.323022167812006
9.292246016,1.000026444896103,-32.69050745052829
9.308150784,0.9999923279859385,-33.05759524088182
9.324055552,0.9999580955533528,-33.424306036575025
9.33996032,0.9999253217118372,-33.79063495625448
9.355865088,0.9998953511846198,-34.1566165069274
9.371769856,0.9998697238807798,-34.522280145538154
9.3876736,0.999849181274316,-34.88765207435177
9.403578368,0.9998348953822483,-35.25287419914465
9.419483136,0.9998273357739699,-35.61796679228304
9.435387904,0.9998269538344977,-35.983005407469264
9.451292672,0.9998337037081598,-36.348104250973904
9.467196416,0.999847282713461,-36.713331068975606
9.483101184,0.9998672768678235,-37.078777307021035
9.499005952,0.9998926415091132,-37.44451286865244
9.51491072,0.9999225044719093,-37.81060293756933
9.530815488,0.9999555267649205,-38.17706684701549
9.546719232,0.9999903587723047,-38.54393556828945
9.562624,1.000025459037304,-38.91123845365549
9.578528768,1.0000593948890815,-39.278976220150746
9.594433536,1.0000905438186767,-39.64711198703117
9.610338304,1.000117701345405,-40.01563053211239
9.626242048,1.000139860145906,-40.38443227031921
9.642146816,1.000155826867907,-40.753493690657095
9.658051584,1.0001650241150923,-41.122725393937
9.673956352,1.0001669152411874,-41.492039215434815
9.68986112,1.0001615541379418,-41.86134741318121
9.705765888,1.0001491119069514,-42.23057230829744
9.721669632,1.0001300247488443,-42.59962461588868
9.7375744,1.0001051727172796,-42.968444366814666
9.753479168,1.0000754561945862,-43.336953417829704
9.769383936,1.0000423177010855,-43.70509713495487
9.785288704,1.0000070743976206,-44.0728668842365
9.801192448,0.9999712105609958,-44.44022311400491
9.817097216,0.9999361880187021,-44.80716746295899
9.833001984,0.9999036378999578,-45.17373310362592
9.848906752,0.9998748691085737,-45.53996056246421
9.86481152,0.9998511634271892,-45.90588115597098
9.880715264,0.9998334525135877,-46.27156578074939
9.896620032,0.9998226534259644,-46.63707672852675
9.9125248,0.9998190868573047,-47.00255831635333
9.928429568,0.9998230806139187,-47.36801669079505
9.944334336,0.9998343481314013,-47.73357768246094
9.96023808,0.9998524600711767,-48.0993802283565
9.976142848,0.9998767523094365,-48.46540280999548
9.992047616,0.9999061538479447,-48.83175474700959
10.007952384,0.9999393984056176,-49.19852134342605
10.023857152,0.9999751956805044,-49.565714999466486
10.03976192,1.0000118499553403,-49.93333032094543
10.055665664,1.0000479081325928,-50.30141170827902
10.071570432,1.000081840421294,-50.66992626710378
10.0874752,1.00011225067629,-51.0388328673956
10.103379968,1.000137564204612,-51.40809844271378
10.119284736,1.000157047278288,-51.77763546643343
10.13518848,1.000169600130516,-52.14740373950007
10.151093248,1.0001748951637202,-52.51726623518976
10.166998016,1.0001724729326353,-52.88718208333267
10.182902784,1.0001623862590914,-53.257053010618776
10.198807552,1.0001452940774047,-53.626770115926064
10.214711296,1.0001216759257319,-53.996285774940496
10.230616064,1.0000926050511159,-54.36548458308941
10.246520832,1.0000593500360662,-54.73434747340492
10.2624256,1.000023185911571,-55.102804177464286
10.278330368,0.9999857489977869,-55.47085193635252
10.294234112,0.9999486737319417,-55.838473162625135
10.31013888,0.999913286308669,-56.20567330647101
10.326043648,0.9998813963215352,-56.57249447957685
10.341948416,0.9998543012093738,-56.93897258556691
10.357853184,0.9998329849000931,-57.305202507432455
10.373757952,0.9998185432453611,-57.67120739151422
10.389661696,0.9998116537504247,-58.03710614060948
10.405566464,0.9998124962959618,-58.40300923116095
10.421471232,0.9998211846662299,-58.768938941952904
10.437376,0.9998372236364089,-59.13506330322867
10.453280768,0.9998600827457622,-59.50142046832045
10.469184512,0.9998888183645614,-59.86812591442803
10.48508928,0.9999221844775749,-60.23518065952712
10.500994048,0.9999586487865306,-60.60267245072419
10.516898816,0.9999968853207217,-60.97061073900246
10.532803584,1.000035147805732,-61.33904434670219
10.548707328,1.0000718076898536,-61.70794243258344
10.564612096,1.0001052707525233,-62.077285927186416
10.580516864,1.0001341644976605,-62.44699585654696
10.596421632,1.0001573501577354,-62.817039870581866
10.6123264,1.0001736623260782,-63.18733549524118
10.628230144,1.0001823892841337,-63.557821882891716
10.644134912,1.000183219575761,-63.92838108256335
10.66003968,1.0001760465231762,-64.29892751595123
10.675944448,1.0001610838472452,-64.66934784839056
10.691849216,1.0001389827632725,-65.0395811040237
10.707753984,1.0001108574666853,-65.40954446466436
10.723657728,1.000077540682232,-65.77913410048345
10.739562496,1.0000407808946314,-66.14834774126739
10.755467264,1.0000017850545475,-66.51710561594972
10.771372032,0.9999625196380895,-66.88546254983092
10.7872768,0.9999243482480401,-67.25333497805408
10.803180544,0.999889271359123,-67.62082123632027
10.819085312,0.9998584966972334,-67.98792541741696
10.83499008,0.9998334470374789,-68.35472995525211
10.850894848,0.9998151282329854,-68.72125001501178
10.866799616,0.9998045474266473,-69.0876435463077
10.88270336,0.9998019760975169,-69.45395662048963
10.898608128,0.9998076605818952,-69.82032125305452
10.914512896,0.9998213380107971,-70.18680831554927
10.930417664,0.9998424997905887,-70.55350336627966
10.946322432,0.9998702341580369,-70.92053455939026
10.962226176,0.9999033947118435,-71.28792115591864
10.978130944,0.9999406193275504,-71.65574467115609
10.994035712,0.9999801809644913,-72.0240489088703
11.00994048,1.00002056753442,-72.39283370578221
11.025845248,1.0000600414051277,-72.76213121996878
11.041748992,1.0000968422511805,-73.13190073165053
11.05765376,1.0001295348569346,-73.50209766055038
11.073558528,1.0001565404196082,-73.87265457718676
11.089463296,1.0001768215862854,-74.2435282283085
11.105368064,1.0001893753886173,-74.61462656030454
11.121272832,1.0001937415633588,-74.9858522352279
11.137176576,1.0001897483327777,-75.35708900357245
11.153081344,1.0001773818730637,-75.72825574859482
11.168986112,1.000157168812873,-76.09925059727787
11.18489088,1.0001301025794418,-76.46999380136378
11.200795648,1.0000971809013315,-76.84039327943704
11.216699392,1.0000597200198642,-77.21041790080146
11.23260416,1.0000193666287536,-77.57999166721113
11.248508928,0.9999779859484309,-77.9490819423926
11.264413696,0.9999370800705029,-78.31771537913757
11.280318464,0.9998984767989022,-78.68589553246308
11.296222208,0.9998640239121287,-79.05367121046022
11.312126976,0.9998348665453192,-79.42106849663665
11.328031744,0.9998125361398915,-79.78818499035849
11.343936512,0.9997978617508381,-80.1551024773346
11.35984128,0.999791549765611,-80.52189388046276
11.375745024,0.9997938704393998,-80.88869072982443
11.391649792,0.99980475434011,-81.25557049099652
11.40755456,0.999823870801838,-81.62265569197955
11.423459328,0.9998503927757582,-81.99002436249543
11.439364096,0.9998830639486086,-82.35774875408119
11.455268864,0.9999207355970964,-82.72592335476719
11.471172608,0.9999615984935554,-83.09457931763107
11.487077376,1.000004219423173,-83.46374949920832
11.502982144,1.0000464883213174,-83.83345396824447
11.518886912,1.0000868552651696,-84.20367505733165
11.53479168,1.0001233114747563,-84.57434364359034
11.550695424,1.0001545321537901,-84.94547193012804
11.566600192,1.0001791812550893,-85.31691698190419
11.58250496,1.0001960370906364,-85.68867233345703
11.598409728,1.0002043631511675,-86.06057323211878
11.614314496,1.0002038882190802,-86.43256027630528
11.63021824,1.0001944424504319,-86.80450013406973
11.646123008,1.000176573466558,-87.17632200571299
11.662027776,1.000150828744759,-87.54790607669672
11.677932544,1.000118465045526,-87.91914416777588
11.693837312,1.0000806872971688,-88.29003889745218
11.709741056,1.0000391192888007,-88.66043571194967
11.725645824,0.9999954917723467,-89.0303761404048
11.741550592,0.9999518059201986,-89.39981202682608
11.75745536,0.9999096770739404,-89.76875358346129
11.773360128,0.9998710825359444,-90.13724167392124
11.789264896,0.999837658219317,-90.50530892388664
11.80516864,0.9998106527287275,-90.87304614265821
11.821073408,0.9997916438648407,-91.24051793712593
11.836978176,0.9997810761460972,-91.6078488479621
11.852882944,0.9997796498522034,-91.97509821995432
11.868787712,0.9997874540035588,-92.3424331981117
11.884691456,0.9998040711704858,-92.709894313006
11.900596224,0.9998289768327517,-93.07764304126161
11.916500992,0.99986094604498,-93.44573073096451
11.93240576,0.9998988299962612,-93.8142557356796
11.948310528,0.9999410012357755,-94.18328288818661
11.964214272,0.9999855872759293,-94.55285420516933
11.98011904,1.0000308887810712,-94.92295811775027
11.996023808,1.0000747454300885,-95.29363742533958
12.011928576,1.000115469814528,-95.66482029255432
12.027833344,1.0001512401230468,-96.0364806617307
12.043737088,1.0001804660465519,-96.40856755443077
12.059641856,1.000201939267771,-96.7809686995268
12.075546624,1.0002147415259162,-97.15362119407293
12.091451392,1.0002182727156013,-97.52638088454209
12.10735616,1.000212215207273,-97.89915049528771
12.123260928,1.00019706532718,-98.27181702456781
12.139164672,1.0001731587031943,-98.64429528036663
12.15506944,1.0001415754629888,-99.01645694261313
12.170974208,1.0001036601631264,-99.38824333803795
12.186878976,1.0000609222539016,-99.75955798836247
12.202783744,1.000015240351434,-100.13039666633952
12.218687488,0.9999685841605003,-100.50070692368796
12.234592256,0.9999228200597992,-100.87046454373146
12.250497024,0.9998798085038006,-101.23973200473125
12.266401792,0.9998417134017578,-101.60852729405062
12.28230656,0.9998098726696334,-101.97693632871692
12.298210304,0.999785882502,-102.34503669466751
12.314115072,0.9997706473455631,-102.71292081484671
12.33001984,0.9997650308942531,-103.08068957791468
12.345924608,0.9997690426529875,-103.44846190474206
