freq,mag,phase
6.0,1.0004350883139757,-136.3286139584382
6.003000832,1.0003949579892613,-136.51830260191545
6.006001664,1.000330446005691,-136.70725086411431
6.009002496,1.0002453567109681,-136.8951288757597
6.012002816,1.000144774233938,-137.08168053796348
6.015003648,1.0000350678398733,-137.26675861720318
6.01800448,0.9999228888819913,-137.4502367412635
6.021005312,0.9998153512139709,-137.6321199933667
6.024006144,0.9997191272755124,-137.8125787459395
6.027006976,0.9996399855566086,-137.99176207203513
6.030007296,0.9995829619052377,-138.16998195154292
6.033008128,0.9995516124292775,-138.34755934621478
6.03600896,0.9995478908057954,-138.52490582411127
6.039009792,0.9995720365498071,-138.70240438645885
6.042010624,0.9996225795981522,-138.8804568829196
6.045011456,0.9996964218681665,-139.05937618054014
6.048011776,0.9997889757245664,-139.23951287733823
6.051012608,0.9998944585074063,-139.42109065759857
6.05401344,1.0000064599090643,-139.60421441978372
6.057014272,1.0001179273366068,-139.78897027431432
6.060015104,1.0002220164472544,-139.97529355413968
6.063015936,1.0003122459251772,-140.16298718904227
6.066016256,1.0003830141339567,-140.35185429449612
6.069017088,1.0004299626434539,-140.54161288355115
6.07201792,1.0004502348452426,-140.73181542498725
6.075018752,1.000442494515597,-140.9221187289005
6.078019584,1.0004071694749137,-141.11214751721855
6.081020416,1.0003464236890838,-141.301483008855
6.084021248,1.0002640780859449,-141.48981949897993
6.087021568,1.0001651826834808,-141.67681997596412
6.0900224,1.0000557697136319,-141.86236464496665
6.093023232,0.9999427811503022,-142.0463101952032
6.096024064,0.9998330389229725,-142.2286595933709
6.099024896,0.9997335557718084,-142.409531128332
6.102025728,0.9996502140272177,-142.58905175340294
6.105026048,0.9995884136801373,-142.76755795566856
6.10802688,0.9995519388055543,-142.94535211316153
6.111027712,0.9995431026766629,-143.12283444424668
6.114028544,0.9995623629597543,-143.30039295755884
6.117029376,0.9996086874806183,-143.47839943910702
6.120030208,0.9996790539801376,-143.65731278633962
6.123030528,0.9997693136711258,-143.83731389867296
6.12603136,0.9998736617488279,-144.01874379281236
6.129032192,0.9999858324739547,-144.20175678628115
6.132033024,1.000098748435516,-144.3863802497817
6.135033856,1.0002055066295685,-144.5726158569717
6.138034688,1.000299434910002,-144.76023315592371
6.141035008,1.0003746920724146,-144.94911331238663
6.14403584,1.0004266912478117,-145.1389353270249
6.147036672,1.000452097193061,-145.32926017799664
6.150037504,1.0004494251723786,-145.51977812220383
6.153038336,1.0004187017051207,-145.71010204987738
6.156039168,1.0003620228783128,-145.89974720725021
6.15904,1.00028259434212,-146.08847163329665
6.16204032,1.0001855500197,-146.27589725240756
6.165041152,1.00007682486904,-146.4618926568178
6.168041984,0.999963061251889,-146.64625142955688
6.171042816,0.9998513770968755,-146.82902226029458
6.174043648,0.9997487180149225,-147.0102335185222
6.17704448,0.9996613527026987,-147.19012706732659
6.1800448,0.9995948683722091,-147.36886057547142
6.183045632,0.9995532122908046,-147.54683442498776
6.186046464,0.9995391260078953,-147.7244358103894
6.189047296,0.9995534474143528,-147.902006744839
6.192048128,0.9995953175723062,-148.08000647063884
6.19504896,0.9996621367384536,-148.25877315898109
6.19804928,0.9997497686467721,-148.43868612871503
6.201050112,0.99985278651593,-148.61993532170638
6.204050944,0.9999648526222491,-148.802785117952
6.207051776,1.0000790313571615,-148.98720275447306
6.210052608,1.0001882028111335,-149.17325788554686
6.21305344,1.0002857622611478,-149.36077654542638
6.21605376,1.0003653484000274,-149.54962320992811
6.219054592,1.0004223249373838,-149.7394138523502
6.222055424,1.000453014624357,-149.92986219405606
6.225056256,1.0004554972643953,-150.1205442262249
6.228057088,1.0004297044102077,-150.31104821074476
6.23105792,1.0003770646082921,-150.50102979511163
6.234058752,1.000300923538877,-150.69005105914567
6.237059072,1.000205953345091,-150.87787516357196
6.240059904,1.0000979974627056,-151.06422617331071
6.243060736,0.9999837518274055,-151.2490119522055
6.246061568,0.999870335160645,-151.43213150343024
6.2490624,0.999764762441459,-151.61372438045777
6.252063232,0.9996734423003597,-151.7938704994989
6.255063552,0.9996022204724346,-151.9728460919178
6.258064384,0.9995554379298497,-152.1509763310527
6.261065216,0.9995360493755273,-152.32863987024996
6.264066048,0.9995452166058862,-152.506249787598
6.26706688,0.9995824737877234,-152.6841559039364
6.270067712,0.9996455221872389,-152.8628095543922
6.273068032,0.9997304335554457,-153.0425268714258
6.276068864,0.9998318617525866,-153.2235758863856
6.279069696,0.9999436836487345,-153.4061412329969
6.282070528,1.0000588714945204,-153.59036012591142
6.28507136,1.0001703597770648,-153.77619781798919
6.288072192,1.0002712704685364,-153.96357903562728
6.291073024,1.0003552005852285,-154.1522976294969
6.294073344,1.0004171436880294,-154.34206729481758
6.297074176,1.0004531267828662,-154.53250537580166
6.300075008,1.000460840402674,-154.72328367661868
6.30307584,1.0004399497706418,-154.9139858179159
6.306076672,1.000391708764035,-155.10415773894593
6.309077504,1.0003189994309383,-155.29351214626655
6.312077824,1.000226296163194,-155.48164135123045
6.315078656,1.0001193950310896,-155.66835239837394
6.318079488,1.0000048998965918,-155.85348081389736
6.32108032,0.9998898506329206,-156.03696431332384
6.324081152,0.9997813905762839,-156.218855790998
6.327081984,0.9996864044113684,-156.3992557246267
6.330082304,0.9996104891324559,-156.5784504739938
6.333083136,0.9995586257497104,-156.75670946883452
6.336083968,0.9995338294367146,-156.93441449352608
6.3390848,0.999537947174702,-157.1119835677336
6.342085632,0.9995704334536402,-157.2898108333576
6.345086464,0.9996294648063198,-157.4682564257845
6.348086784,0.9997113144080911,-157.6477604633164
6.351087616,0.9998109814887889,-157.8285693049101
6.354088448,0.9999222867324914,-158.01086179710472
6.35708928,1.0000383188090174,-158.19482180272198
6.360090112,1.000151898058866,-158.38038685146165
6.363090944,1.0002560300878858,-158.56757404204663
6.366091776,1.000344187614141,-158.7561212754854
6.369092096,1.0004109357495852,-158.94577146823212
6.372092928,1.000452173270955,-159.1361872874189
6.37509376,1.0004653182742564,-159.3270145955774
6.378094592,1.0004495167584986,-159.51780896380475
6.381095424,1.0004056919052757,-159.70819926415336
6.384096256,1.00033662028653,-159.8977779153297
6.387096576,1.000246456053324,-160.08621277793938
6.390097408,1.0001408402902714,-160.2732421236518
6.39309824,1.0000263609871227,-160.45866182988186
6.396099072,0.9999099198200865,-160.64246169241923
6.399099904,0.9997989220739821,-160.82460559269634
6.402100736,0.9997001261622276,-161.00527411621871
6.405101056,0.9996197529444527,-161.1846028243545
6.408101888,0.9995627116872495,-161.36296194365076
6.41110272,0.9995326278895631,-161.54068318626534
6.414103552,0.999531367024703,-161.7181851948686
6.417104384,0.9995589048623025,-161.89585894820766
6.420105216,0.9996138239389706,-162.07415770799167
6.423105536,0.9996925159586754,-162.25339670135213
6.426106368,0.9997901064585349,-162.4338979530923
6.4291072,0.9999006949664108,-162.61587938269025
6.432108032,1.0000173912402552,-162.7995016896705
6.435108864,1.0001328939054939,-162.98480483048027
6.438109696,1.0002400559659108,-163.17170116016774
6.441110528,1.0003323366130465,-163.36002482941453
6.444110848,1.0004039170488466,-163.5495283553258
6.44711168,1.000450478793053,-163.739870526481
6.450112512,1.0004690002249874,-163.9306866755323
6.453113344,1.0004584028199748,-164.12155541163744
6.456114176,1.000419179348762,-164.31206892283268
6.459115008,1.0003538715655795,-164.50182289789655
6.462115328,1.0002665296313469,-164.69048911941914
6.46511616,1.000162491122885,-164.87778719981065
6.468116992,1.000048100611105,-165.0635071187118
6.471117824,0.9999305930490803,-165.24757866480527
6.474118656,0.9998171172072531,-165.42996915574565
6.477119488,0.9997147557284747,-165.61080544868204
6.480119808,0.9996299779386265,-165.79028542345694
6.48312064,0.999567893130465,-165.96872754440463
6.486121472,0.999532383800407,-166.14643456867896
6.489122304,0.9995256245354482,-166.3238646843882
6.492123136,0.9995483002433776,-166.50138592373452
6.495123968,0.9995987898882117,-166.6794246684951
6.498124288,0.999673995680084,-166.85837324808168
6.50112512,0.9997694335990279,-167.03855134695897
6.504125952,0.9998789941865897,-167.2201702808618
6.507126784,0.999995926239318,-167.40343504524307
6.510127616,1.0001132693675738,-167.5883843977726
6.513128448,1.0002232903845167,-167.77493115967886
6.51612928,1.000319558691499,-167.96299975902747
6.5191296,1.0003959971837177,-168.15231920972133
6.522130432,1.0004477480543177,-168.34250439976842
6.525131264,1.0004716159922618,-168.5332633603775
6.528132096,1.0004662985314936,-168.72412728111397
6.531132928,1.0004319618252537,-168.91473485518142
6.53413376,1.0003706650818527,-169.10465949677751
6.53713408,1.0002862696617416,-169.29352125832557
6.540134912,1.000184016593915,-169.48102639094836
6.543135744,1.0000700114469412,-169.66700290357878
6.546136576,0.9999515483570413,-169.85128829846428
6.549137408,0.9998359397553536,-170.03389446726752
6.55213824,0.9997302592915882,-170.21488871736352
6.55513856,0.9996410104652861,-170.39449124847857
6.558139392,0.9995737999424956,-170.5729736069432
6.561140224,0.9995329164819224,-170.75064251525203
6.564141056,0.9995208111184215,-170.92796596445166
6.567141888,0.9995382819641132,-171.1053019966857
6.57014272,0.9995842149860881,-171.28307610222188
6.57314304,0.999655806218688,-171.4617051227995
6.576143872,0.9997487151969977,-171.64149125390665
6.579144704,0.9998570496948525,-171.82273747252907
6.582145536,0.9999742597232135,-172.00558115025456
6.585146368,1.0000928799674031,-172.1901336435779
6.5881472,1.000205784265318,-172.3763273244599
6.591148032,1.0003058763464403,-172.5640814231552
6.594148352,1.0003869161205772,-172.75311717251782
6.597149184,1.0004439770896367,-172.94310741479163
6.600150016,1.0004733796407395,-173.1337566432807
6.603150848,1.00047344258421,-173.32458261241166
6.60615168,1.0004439135638379,-173.5152339007974
6.609152512,1.000386923881356,-173.70523015829505
6.612152832,1.0003056573626885,-173.8942354230447
6.615153664,1.0002053613379693,-174.08195251823244
6.618154496,1.0000921983537006,-174.26809981674708
6.621155328,0.9999729348253448,-174.45259778263326
6.62415616,0.9998553045078563,-174.6353824001539
6.627156992,0.999746371817845,-174.81653436045806
6.630157312,0.999652925071094,-174.99620575469325
6.633158144,0.9995808268783811,-175.17470936391786
6.636158976,0.999534441721654,-175.35232133279334
6.639159808,0.999516822290129,-175.52948902134816
6.64216064,0.9995290760200113,-175.70662063194388
6.645161472,0.9995702742144942,-175.88410322883806
6.648161792,0.9996381019136631,-176.06235585796443
6.651162624,0.9997282145738952,-176.24177476012872
6.654163456,0.9998351957101722,-176.42256430307438
6.657164288,0.9999522533752268,-176.60498100932023
6.66016512,1.0000721949838167,-176.7890863478183
6.663165952,1.0001876125481115,-176.97487566082057
6.666166784,1.0002914253602841,-177.16224979319185
6.669167104,1.0003771478046397,-177.350944183152
6.672167936,1.0004392214181124,-177.54073608805933
6.675168768,1.0004742792940449,-177.73118306100656
6.6781696,1.0004798128408037,-177.9219275410001
6.681170432,1.0004554148680807,-178.1125457729929
6.684171264,1.0004026777145885,-178.30258926492283
6.687171584,1.0003248893437162,-178.49171022634036
6.690172416,1.0002268089952369,-178.67955130872406
6.693173248,1.0001144996817586,-178.86588046669436
6.69617408,0.9999948458772113,-179.05053155803785
6.699174912,0.9998752529070417,-179.2335011059658
6.702175744,0.9997633151647265,-179.41472943054544
6.705176064,0.9996657406325157,-179.59448584636948
6.708176896,0.9995886481216023,-179.77296366763952
6.711177728,0.9995370065810283,-179.95049549466677
6.71417856,0.9995138355827891,179.87250780704096
6.717179392,0.9995206345782987,179.69564960237403
6.720180224,0.9995570332742263,179.51846453567998
6.723180544,0.9996209003337669,179.34056328938252
6.726181376,0.9997079710819967,179.16161040585126
6.729182208,0.999813212111587,178.9812988672217
6.73218304,0.999929974025109,178.7993647935952
6.735183872,1.0000509889220945,178.6157391675589
6.738184704,1.0001688070618981,178.43039327465846
6.741185536,1.000276079184512,178.24345721653603
6.744185856,1.0003662947562613,178.05510368725515
6.747186688,1.000433701400199,177.8656513281215
6.75018752,1.0004741476303782,177.67540869279654
6.753188352,1.0004852425269406,177.48478044410575
6.756189184,1.0004660517224677,177.29424073400787
6.759190016,1.0004179286238095,177.10418107399357
6.762190336,1.0003437825835195,176.91501824400171
6.765191168,1.0002480865289012,176.72706236920067
6.768192,1.0001368819393135,176.54060065498294
6.771192832,1.000017035774403,176.35582254006883
6.774193664,0.9998958579599315,176.17276379783465
6.777194496,0.9997810052030602,175.991421547892
6.780194816,0.9996794505248492,175.81163444413954
6.783195648,0.9995975139951521,175.63318139468623
6.78619648,0.9995404929832276,175.45575726623085
6.789197312,0.9995117512493199,175.27895550391972
6.792198144,0.9995129660764956,175.10235925109876
6.795198976,0.9995444764688088,174.9255099588906
6.798199296,0.9996040543800987,174.74804514807758
6.801200128,0.9996880833251433,174.5695478795825
6.80420096,0.9997913339939388,174.3897205604805
6.807201792,0.9999074296466121,174.20833952870407
6.810202624,1.0000293692442686,174.02525199976725
6.813203456,1.000149355150763,173.84039284982717
6.816204288,1.0002600145819893,173.65394491899724
6.819204608,1.0003545673461613,173.46597947278028
6.82220544,1.000427184649964,173.27685123127895
6.825206272,1.0004731256372654,173.08686840627786
6.828207104,1.0004897630224823,172.89646271760796
6.831207936,1.000476006246213,172.70602967633747
6.834208768,1.0004325444880966,172.51601201422207
6.837209088,1.0003622245568053,172.32683740058982
6.84020992,1.000269172720484,172.13881283829403
6.843210752,1.0001592970893063,171.9522784117174
6.846211584,1.0000395561789077,171.7673709472545
6.849212416,0.9999169552329984,171.58424973892724
6.852213248,0.9997992820568002,171.40283864613946
6.855213568,0.9996939834774277,171.22306663823377
6.8582144,0.9996074234076057,171.04465401555981
6.861215232,0.9995448586554777,170.86735536129856
6.864216064,0.99951055649399,170.69074505234246
6.867216896,0.9995062488670542,170.5144314787529
6.870217728,0.9995325558396229,170.3379796048297
6.87321856,0.9995876980225267,170.16093964025887
6.87621888,0.9996683546147322,169.98294123988623
6.879219712,0.9997695056788789,169.80365862825496
6.882220544,0.9998848685054037,169.62282068930875
6.885221376,1.0000072345582423,169.4402881687063
6.888222208,1.0001292607823509,169.25600427788444
6.89122304,1.000243134276372,169.0700509131756
6.89422336,1.000341968119103,168.88256587503864
6.897224192,1.0004196175059095,168.69382612166723
6.900225024,1.0004711290661918,168.5041443649696
6.903225856,1.0004934222439001,168.31396471104898
6.906226688,1.0004849298950902,168.12370284123745
6.90922752,1.0004465115988876,167.933798853485
6.91222784,1.0003801730553155,167.7446052117564
6.915228672,1.0002901121304775,167.5565826557755
6.918229504,1.000181904713671,167.36995643023548
6.921230336,1.0000621253957267,167.18499971982158
6.924231168,0.9999385012988548,167.00182644814385
6.927232,0.9998184292345675,166.82039181312325
6.93023232,0.9997092723351126,166.6406084344809
6.933233152,0.9996180367967312,166.46228005163053
6.936233984,0.999550161358764,166.28513294591204
6.939234816,0.9995102369370767,166.1087663070238
6.942235648,0.9995003981869652,165.93278815664289
6.94523648,0.9995213385502209,165.75672229577643
6.948237312,0.99957201994143,165.58011805679337
6.951237632,0.9996490553517035,165.40265623577838
6.954238464,0.9997477160530627,165.2239340045959
6.957239296,0.9998620687677217,165.04369087906272
6.960240128,0.9999848094935175,164.86176924688058
6.96324096,1.0001086089002174,164.67805838237433
6.966241792,1.0002255895921275,164.49266332052167
6.969242112,1.0003285410710037,164.30568170678526
6.972242944,1.0004111281546642,164.11736209369266
6.975243776,1.0004682397202853,163.92808804344537
6.978244608,1.000496082708459,163.73816996654594
6.98124544,1.0004933404355336,163.54810776131404
6.984246272,1.0004598100589,163.35830729480156
6.987246592,1.0003976114367594,163.16922337673225
6.990247424,1.0003107001230147,162.98118245430933
6.993248256,1.0002043647426686,162.7945767729563
6.996249088,1.0000851886050015,162.60956116075292
6.99924992,0.9999603781070387,162.42635769835303
7.002250752,0.9998380738454529,162.24488389159325
7.005251072,0.9997254543536599,162.06517067323824
7.008251904,0.9996296079191104,161.88695062503703
7.011252736,0.9995565990126499,161.70994250688474
7.014253568,0.9995108404155715,161.53381838861776
7.0172544,0.9994953155990587,161.3581557592895
7.020255232,0.9995109742628902,161.18249982470095
7.023256064,0.9995568948323785,161.00639917365694
7.026256384,0.9996301740261858,160.82947437018555
7.029257216,0.9997263199504098,160.65135935095057
7.032258048,0.999839225087001,160.47174482800338
7.03525888,0.9999621350242881,160.29044229144972
7.038259712,1.0000875031441854,160.10736093744313
7.041260544,1.0002073187097709,159.9225505344882
7.044260864,1.000314301047412,159.73611768579391
7.047261696,1.000401747683614,159.54827631727414
7.050262528,1.000464250699476,159.35939890342792
7.05326336,1.0004979448149818,159.16981957162164
7.056264192,1.0005007403724688,158.98003073294242
7.059265024,1.0004723744022712,158.79036852983927
7.062265344,1.0004146549804487,158.60137852034785
7.065266176,1.0003310545937127,158.41342265274568
7.068267008,1.0002267984063948,158.22681406414293
7.07126784,1.0001083595020206,158.04181962598108
7.074268672,0.9999829181233872,157.858576215304
7.077269504,0.9998583540691047,157.67716952961183
7.080269824,0.9997423118695706,157.49747150486505
7.083270656,0.9996421943255941,157.31934378255315
7.086271488,0.9995639198613718,157.14255165605462
7.08927232,0.9995125430499858,156.96668246439532
7.092273152,0.9994913227466863,156.79136237101713
7.095273984,0.9995013933433612,156.61613341289421
7.098274816,0.9995423578181742,156.44056476595293
7.101275136,0.9996116476973864,156.26419821057988
7.104275968,0.9997048542643069,156.08669838502024
7.1072768,0.9998163431217929,155.90771802403032
7.110277632,0.999939251642067,155.72709710174368
7.113278464,1.0000658902188166,155.54467258552444
7.116279296,1.00018835979368,155.3604872083341
7.119279616,1.0002991870749496,155.17463808644933
7.122280448,1.0003914880282982,154.9873194429139
7.12528128,1.000459468426471,154.79887880725443
7.128282112,1.000498823446301,154.60968462353642
7.131282944,1.0005073924698487,154.42015914538104
7.134283776,1.0004843667716985,154.2307705310253
7.137284096,1.0004311558369996,154.04189179186537
7.140284928,1.0003510555818362,153.8540154158969
7.14328576,1.0002493005314412,153.6674529797576
7.146286592,1.0001316530208089,153.48248211319682
7.149287424,1.0000057241703753,153.29926620823
7.152288256,0.9998792472126415,153.11786612176405
7.155288576,0.9997601320645295,152.93825234257497
7.158289408,0.9996555868831668,152.76029365689243
7.16129024,0.9995721952220767,152.58366928806328
7.164291072,0.9995151416659083,152.40807671906418
7.167291904,0.999488123390928,152.23312946524115
7.170292736,0.999492707977026,152.05831819389667
7.173293568,0.9995285831571976,151.88328290551587
7.176293888,0.9995935971853113,151.70750729341262
7.17929472,0.9996838915659049,151.53064456335318
7.182295552,0.999793577485798,151.35236702833782
7.185296384,0.999916112811982,151.17241172246963
7.188297216,1.000043754077691,150.9906838646451
7.191298048,1.000168860687344,150.80715206928267
7.194298368,1.0002833989309188,150.62193862766912
7.1972992,1.0003802225465765,150.43521281891321
7.200300032,1.0004536859834787,150.2472593728209
