freq,mag,phase
6.0,0.9999962808612619,-12.381025736342139
6.027491328,1.0000189140028695,-13.272583225618597
6.054982656,1.0000408723392884,-14.164468827365415
6.082473984,1.0000616952211914,-15.05670948506665
6.109965824,1.0000806218889766,-15.949218048570746
6.137457152,1.000097390563164,-16.84206980600757
6.16494848,1.0001113793476402,-17.73511630082807
6.192439808,1.0001221717281565,-18.62844516479092
6.219931136,1.00012967094889,-19.52198789100429
6.247422464,1.0001336085468944,-20.415730440873073
6.274914304,1.0001336834234584,-21.30957301123825
6.302405632,1.0001301999129304,-22.203535599377425
6.32989696,1.0001227447462822,-23.097555472338865
6.357388288,1.0001120862609363,-23.991665265051115
6.384879616,1.0000980708911025,-24.88573618394907
6.412370944,1.0000814667432951,-25.77978167058648
6.439862784,1.000062272081269,-26.6738064276272
6.467354112,1.0000414288077333,-27.567777558554088
6.49484544,1.0000192113628978,-28.461598830842075
6.522336768,0.9999963426828935,-29.355409902376703
6.549828096,0.9999735895170108,-30.24909224342275
6.577319424,0.9999512852430161,-31.142646867873758
6.604810752,0.999930056618339,-32.03616362910572
6.632302592,0.9999107908676242,-32.929630227101526
6.65979392,0.9998937908160124,-33.823018032277474
6.687285248,0.9998794456392829,-34.716377711276486
6.714776576,0.9998683721840532,-35.609753311740825
6.742267904,0.9998608270576771,-36.50314217095312
6.769759232,0.9998569535891421,-37.39663785824918
6.797251072,0.9998567706110716,-38.290210741752155
6.8247424,0.9998605227630987,-39.18391817300145
6.852233728,0.9998678826873751,-40.07780909392919
6.879725056,0.999878883213979,-40.97191596881603
6.907216384,0.9998930567830965,-41.86624579599389
6.934707712,0.9999102005123061,-42.76084702758778
6.962199552,0.9999296415333321,-43.65578069604238
6.98969088,0.9999511112810757,-44.55101670486186
7.017182208,0.99997358955102,-45.44660894268055
7.044673536,0.9999968897097756,-46.34248151441166
7.072164864,1.000020341468381,-47.238737065124965
7.099656192,1.0000430664953848,-48.13533925911075
7.12714752,1.0000645534186412,-49.03225616288619
7.15463936,1.0000842586154188,-49.929528308827244
7.182130688,1.000101642058952,-50.82706756714134
7.209622016,1.0001162790369256,-51.72490087193002
7.237113344,1.000127540815156,-52.62300247054585
7.264604672,1.0001354509213096,-53.5212917896586
7.292096,1.000139511522611,-54.41975342481704
7.31958784,1.0001396180396165,-55.31838885059887
7.347079168,1.0001359501109426,-56.21715202845133
7.374570496,1.0001283790844344,-57.11595704756754
7.402061824,1.0001172105492535,-58.01478032407131
7.429553152,1.0001028199968938,-58.91363485912509
7.45704448,1.0000854523572775,-59.81245869729708
7.48453632,1.00006563266874,-60.71123770079279
7.512027648,1.0000438619529328,-61.609949895909516
7.539518976,1.000020805515663,-62.50857330826955
7.567010304,0.9999970942123048,-63.40707746781922
7.594501632,0.9999731606837764,-64.30549690760118
7.62199296,0.9999499386259192,-65.20379939685395
7.649484288,0.9999278915922527,-66.10203136237676
7.676976128,0.999907665754686,-67.00016791055643
7.704467456,0.9998899791498745,-67.8982684417844
7.731958784,0.9998750374575954,-68.79633419217592
7.759450112,0.9998633884480527,-69.69436319494258
7.78694144,0.9998554958759269,-70.59246873842922
7.814432768,0.9998512258749205,-71.4906181844046
7.841924608,0.9998512649878296,-72.38884095808557
7.869415936,0.9998549433088921,-73.28722859435369
7.896907264,0.9998626815485482,-74.18577676623406
7.924398592,0.9998740577524071,-75.0845687676818
7.95188992,0.9998888492293391,-75.98361017630293
7.979381248,0.9999067186624686,-76.88287889733569
8.006873088,0.9999269368644746,-77.7825017993127
8.034364416,0.9999492532913216,-78.6823738255443
8.061855744,0.9999729377523253,-79.5826573962197
8.089347072,0.9999972114217859,-80.48326614016274
8.1168384,1.0000216743456365,-81.38421256145932
8.144329728,1.0000454463122892,-82.28554229927859
8.171821056,1.0000681912329155,-83.18718303516536
8.199312896,1.0000888651755668,-84.08917905821109
8.226804224,1.000107197241402,-84.99145611503171
8.254295552,1.0001225002695795,-85.89401455747634
8.28178688,1.000134512159518,-86.79684608822265
8.309278208,1.0001427626686583,-87.69987889338279
8.336769536,1.0001470877073726,-88.60310394655399
8.364261376,1.0001473694214182,-89.50648679374054
8.391752704,1.0001434984795825,-90.409950628258
8.419244032,1.000135720811581,-91.31349561719409
8.44673536,1.000124117157364,-92.21706553786554
8.474226688,1.0001090816433824,-93.1206304857291
8.501718016,1.0000909446605006,-94.02414069019001
8.529209856,1.0000702378226531,-94.92760101349629
8.556701184,1.000047412689334,-95.83097032806383
8.584192512,1.0000231936563768,-96.73421750183452
8.611684352,0.9999981966230409,-97.63738204592681
8.63917568,0.9999731535692413,-98.54041535370314
8.666667008,0.9999487100351716,-99.44331823788708
8.694158336,0.9999255972683946,-100.34611617829387
8.721649664,0.999904250129157,-101.24884360390121
8.749140992,0.9998855041581275,-102.15148352999239
8.77663232,0.9998697120234503,-103.05405200311661
8.804123648,0.9998573651331821,-103.9566333490692
8.831614976,0.9998488696458406,-104.85920411804773
8.859106304,0.9998443642709826,-105.76182768703715
8.886597632,0.9998440174439464,-106.6645462062722
8.91408896,0.9998479151257796,-107.56741076021916
8.941580288,0.9998558985125799,-108.47041942005086
8.96907264,0.9998677268554382,-109.37364949110774
8.996563968,0.9998832147760598,-110.27712426655526
9.024055296,0.999901840139108,-111.18085113633911
9.051546624,0.9999231491423557,-112.08490165498395
9.079037952,0.9999465288692284,-112.98924628733124
9.10652928,0.9999713775921993,-113.89394728808894
9.134020608,0.9999971492711569,-114.79901010477914
9.161511936,1.0000228637569883,-115.7044211087604
9.189003264,1.0000480128036344,-116.6102029503615
9.216494592,1.0000719284757598,-117.51627854880327
9.24398592,1.0000939383345284,-118.4227326239659
9.271477248,1.000113297531476,-119.3294681537635
9.298968576,1.0001296378214297,-120.23649974315563
9.326460928,1.0001424605649638,-121.14377685264913
9.353952256,1.0001513592915643,-122.05125171790401
9.381443584,1.000156181288771,-122.95890537580526
9.408934912,1.000156567732226,-123.86670378170874
9.43642624,1.0001527279132614,-124.77460440838563
9.463917568,1.0001446699309002,-125.68253417995503
9.491408896,1.0001325671218755,-126.5904961954406
9.518900224,1.0001167061446816,-127.4984335524283
9.546391552,1.0000976487570739,-128.40631792849715
9.57388288,1.000075759801513,-129.3141015069558
9.601374208,1.0000517169701701,-130.22178572946126
9.628865536,1.0000261103880432,-131.12931619456324
9.656357888,0.9999996574024762,-132.03672896657085
9.683849216,0.9999730979047111,-132.94398012693372
9.711340544,0.9999471226476898,-133.85108104833168
9.738831872,0.9999224956524579,-134.7580718655078
9.7663232,0.9998997786791971,-135.66491262374973
9.793814528,0.9998796453466395,-136.57166240346564
9.821305856,0.9998627744550672,-137.4783220802939
9.848797184,0.9998494800741293,-138.3849612240321
9.876288512,0.9998401686280727,-139.29157521425248
9.90377984,0.9998351611127324,-140.19822362140013
9.931271168,0.9998346409047536,-141.1049317731922
9.958762496,0.9998385004730453,-142.0117603881871
9.986253824,0.9998467640637118,-142.91875026544622
10.013746176,0.9998591655993587,-143.82591797917115
10.041237504,0.9998753719041655,-144.73334296026198
10.068728832,0.9998950522524876,-145.6410057442521
10.09622016,0.9999175384080617,-146.5489606347302
10.123711488,0.9999424215929686,-147.45724177490808
10.151202816,0.9999688937579988,-148.36588801107357
10.178694144,0.9999961751446292,-149.27484390147322
10.206185472,1.0000236576516583,-150.18417935745472
10.2336768,1.0000505411928875,-151.09384735556185
10.261168128,1.0000761124872488,-152.00386286429855
10.288659456,1.0000996690944564,-152.9142150992169
10.316150784,1.0001205886142672,-153.82487048910258
10.343642112,1.0001381707586579,-154.73579531790898
10.371134464,1.0001520399655315,-155.6469626808339
10.398625792,1.000161765166165,-156.55835053552195
10.42611712,1.0001671985372949,-157.4698868942599
10.453608448,1.0001679005619144,-158.3815398412275
10.481099776,1.0001639920459844,-159.29328473555694
10.508591104,1.000155717232725,-160.20506147543793
10.536082432,1.0001429553672214,-161.11681573906696
10.56357376,1.000126211652761,-162.0285150834536
10.591065088,1.0001058976314317,-162.94015770369276
10.618556416,1.0000826764924975,-163.85166392945013
10.646047744,1.00005702218165,-164.76303618511284
10.673539072,1.0000296104931536,-165.67422875385412
10.701031424,1.0000013784411093,-166.58523454758463
10.728522752,0.9999728229692749,-167.4960741057478
10.75601408,0.9999448250401048,-168.40673175135993
10.783505408,0.9999182425061628,-169.31720732968833
10.810996736,0.9998937627920208,-170.22751278466464
10.838488064,0.999871899074804,-171.13768130741283
10.865979392,0.9998534480125976,-172.04774132849658
10.89347072,0.9998388409598417,-172.9577072633204
10.920962048,0.9998285825979857,-173.8676578657237
10.948453376,0.9998228614963645,-174.77758626953593
10.975944704,0.9998218823325918,-175.68755985090706
11.003436032,0.9998256979949043,-176.59763614069215
11.03092736,0.9998343429046215,-177.50782810711522
11.058419712,0.9998473094772973,-178.41819674627797
11.08591104,0.9998644589359165,-179.32880774061223
11.113402368,0.9998854831562137,179.76036145887727
11.140893696,0.9999095448873939,178.84924661161483
11.168385024,0.9999361021128506,177.9378070756142
11.195876352,0.9999645961550815,177.02600311088966
11.22336768,0.9999940057586328,176.11391757168118
11.250859008,1.0000237399288516,175.20143534269576
11.278350336,1.000052783812573,174.28861624058388
11.305841664,1.0000805828787507,173.37546150259726
11.333332992,1.000106234683297,172.46196151508772
11.36082432,1.000129054302586,171.5481835665275
11.388315648,1.0001483365955424,170.63412841963316
11.415808,1.000163623372443,169.71982776663842
11.443299328,1.0001745981805608,168.8053451560177
11.470790656,1.000180652496414,167.89070128210957
11.498281984,1.0001817398996904,166.97597894921935
11.525773312,1.0001779464760474,166.0611634429217
11.55326464,1.0001690783960253,165.14635505757045
11.580755968,1.0001556222592256,164.2315907615711
11.608247296,1.0001378348019043,163.31689560479668
11.635738624,1.0001160153801245,162.40233751547837
11.663229952,1.0000909112728584,161.48791587987142
11.69072128,1.0000630934168755,160.57370140011977
11.718212608,1.0000334810050406,159.65969009774605
11.74570496,1.0000026673420603,158.74591057491952
11.773196288,0.9999714496391676,157.83235111119714
11.800687616,0.9999408929777203,156.9190295868592
11.828178944,0.9999116864843137,156.00593817934237
11.855670272,0.9998847642535433,155.0930591365914
11.8831616,0.9998605359792108,154.1803726335667
11.910652928,0.99984009334772,153.2678316796752
11.938144256,0.9998237324301826,152.3554354197421
11.965635584,0.9998120658140437,151.44309477322832
11.993126912,0.9998053554008289,150.53081828511486
12.02061824,0.9998038513526446,149.6185222604142
12.048109568,0.9998075947928855,148.70617337652564
12.075600896,0.9998164899998179,147.7936977708906
12.103093248,0.9998303292086302,146.88108321830643
12.130584576,0.9998487003585084,145.96828133283918
12.158075904,0.9998713447309147,145.05522317180674
12.185567232,0.9998974645113126,144.14188277549817
12.21305856,0.9999264370717443,143.22826080740268
12.240549888,0.9999574409285837,142.3142928186956
12.268041216,0.9999897518241881,141.3999758989971
12.295532544,1.0000222465843154,140.48532753492074
12.323023872,1.0000543576857384,139.57030178312536
12.3505152,1.0000850396350942,138.6549629991251
12.378006528,1.0001135671587875,137.7392609098604
12.405497856,1.0001389045217668,136.82328505808127
12.432989184,1.000160540171738,135.90703045165756
12.460481536,1.0001777719245064,134.99054035205526
12.487972864,1.0001902349361858,134.07388182349226
12.515464192,1.0001974828253763,133.15707909673753
12.54295552,1.0001991938879018,132.24018880601173
12.570446848,1.0001953806525776,131.3232604873626
12.597938176,1.0001861783637631,130.40634458721482
12.625429504,1.000171675703812,129.48949229943676
12.652920832,1.0001522762261927,128.5727870510049
12.68041216,1.000128519544491,127.65623559453564
12.707903488,1.0001010177255585,126.7398870884818
12.735394816,1.0000704810522494,125.82375844603949
12.762886144,1.000037596474104,124.90791667515226
12.790378496,1.0000033781681252,123.99235560001144
12.817869824,0.9999688601955712,123.07707410732722
12.845361152,0.9999348471743987,122.16210528422519
12.87285248,0.9999021266587914,121.24741459041535
12.900343808,0.9998717823055598,120.33299557764792
12.927835136,0.9998446430465738,119.41883290270277
12.955326464,0.9998213897753245,118.50487504733019
12.982817792,0.9998027789688875,117.59111142011915
13.01030912,0.9997892903392108,116.67745500996242
13.037800448,0.9997812906146912,115.7638970672448
13.065291776,0.9997791140368416,114.85035080736444
13.092783104,0.9997827895033945,113.93679560908821
13.120274432,0.999792394082966,113.02316066301817
13.147766784,0.9998074869646496,112.10938979901772
13.175258112,0.9998278194732627,111.19544290934176
13.20274944,0.9998529249705789,110.28124664072051
13.230240768,0.9998819505462693,109.36680267021958
13.257732096,0.9999144554362461,108.45202803765865
13.285223424,0.9999493033743504,107.53692076986619
13.312714752,0.9999856443300946,106.62146823338894
13.34020608,1.0000225485725032,105.70565989496556
13.367697408,1.0000589785421183,104.78948201800915
13.395188736,1.0000939379307605,103.87293709474889
13.422680064,1.0001264961719707,102.95605651696206
13.450171392,1.0001556635805298,102.03886263373407
13.47766272,1.0001806974380831,101.12140182854995
13.505155072,1.000200882627444,100.20370687204262
13.5326464,1.0002155616909019,99.28582306615051
13.560137728,1.0002244034736034,98.36780363408992
13.587629056,1.000227071165097,97.44970345707138
13.615120384,1.000223392402122,96.53160604357579
13.642611712,1.000213606477657,95.61354824024141
13.67010304,1.000197615115493,94.69558065590675
13.697594368,1.0001760640012642,93.77778778170943
13.725085696,1.0001493911596047,92.8602136238726
13.752577024,1.0001181953192075,91.94288096502332
13.780068352,1.0000835849288994,91.0258568646233
13.80755968,1.0000461609376083,90.10916308106903
13.835052032,1.0000070802146095,89.19284120853901
13.86254336,0.9999672404689295,88.276867638555
13.890034688,0.9999279912566539,87.36127601648897
13.917526016,0.9998901023852889,86.44604771529968
13.945017344,0.9998548429577013,85.53116360453477
13.972508672,0.9998231157543427,84.61658820028103
14.0,0.9997957508870889,83.70231608837813
