freq,mag,phase
6.0,0.9999431024670976,-146.0145628430258
6.031128576,0.9999698420626014,-147.7514052877217
6.06225664,0.9999973877753116,-149.488376219481
6.093385216,1.0000250810053193,-151.22542188667546
6.124513792,1.0000523703303767,-152.9625586087897
6.155641856,1.000078888653969,-154.69978585674406
6.186770432,1.000104063971856,-156.43705076301035
6.217899008,1.000127395295299,-158.17435382982467
6.249027072,1.000148496744969,-159.9116607472449
6.280155648,1.0001669514022256,-161.64890810770098
6.311284224,1.000182294302152,-163.38612065497284
6.342412288,1.0001944592424343,-165.12322905110875
6.373540864,1.0002031285246913,-166.86022224954894
6.40466944,1.0002080960733426,-168.59701834219172
6.435797504,1.0002092512707537,-170.3335859489801
6.46692608,1.0002065609272426,-172.06990276373557
6.498054656,1.0002001614123308,-173.80594747825265
6.52918272,1.0001900589121846,-175.54161004354017
6.560311296,1.0001764095113403,-177.27693473584736
6.591439872,1.0001597050249276,-179.01185888686632
6.622567936,1.0001399148398085,179.25370414562505
6.653696512,1.0001176207695863,177.51970502896157
6.684825088,1.00009320197051,175.78622720300817
6.715953152,1.000067053393271,174.05327542368067
6.747081728,1.000039641435825,172.32089547654638
6.778210304,1.000011436881551,170.58903812948344
6.809338368,0.9999832143845789,168.85779585651517
6.840466944,0.9999551373036052,167.12711395436392
6.87159552,0.9999280340413573,165.39704145091855
6.902723584,0.9999023276588601,163.66756579745098
6.93385216,0.9998783220893094,161.93866832503943
6.964980736,0.9998567294888939,160.21035494111666
6.9961088,0.9998377134988138,158.4826140118915
7.027237376,0.9998217776955107,156.75540577171063
7.058365952,0.999809248528139,155.0287638313268
7.089494016,0.9998003229167072,153.30260054986726
7.120622592,0.999794976171947,151.57694553508122
7.151751168,0.9997937286772247,149.85177034707954
7.182879232,0.9997963332361418,148.12703933257845
7.214007808,0.9998028264018507,146.4027144647671
7.245136384,0.9998130641339811,144.67880260577274
7.276264448,0.9998268547737366,142.95525653239721
7.307393024,0.9998439483616478,141.23205233226398
7.3385216,0.9998641554906796,139.50919864571367
7.369649664,0.9998869012908803,137.78666429018
7.40077824,0.9999119327719922,136.06441930566106
7.431906816,0.999938757367005,134.34246016831406
7.46303488,0.9999668084070736,132.62077306817451
7.494163456,0.9999956652588385,130.89937902018997
7.525292032,1.000024740355644,129.17826705725798
7.556420096,1.000053423345911,127.45742172186644
7.587548672,1.0000812995424913,125.73689954542102
7.618677248,1.0001077697243363,124.01663298064781
7.649805312,1.0001324574810049,122.29669449921752
7.680933888,1.0001547479334334,120.577095730416
7.712062464,1.000174262835933,118.85786330157318
7.743190528,1.0001907931945375,117.13899503135221
7.774319104,1.000203639181883,115.42053406331875
7.80544768,1.0002130067201702,113.70252596794391
7.836575744,1.000218396656603,111.98499343710243
7.86770432,1.0002198352304443,110.26794567009836
7.898832896,1.0002171423517712,108.55143700951157
7.92996096,1.0002106741730943,106.83550533154153
7.961089536,1.0002001987936435,105.12015420106886
7.992218112,1.0001861047620493,103.40544067260667
8.023346176,1.0001684758478309,101.6913831515466
8.054474752,1.0001477762777646,99.97803125919751
8.085603328,1.0001243910679687,98.2653685398555
8.116731392,1.0000986568842523,96.55342003239429
8.147859968,1.000071008839878,94.84221970501152
8.178988544,1.000042113763413,93.13178486489822
8.210116608,1.0000124306750802,91.42209484978503
8.241245184,0.9999824293692928,89.7131779775156
8.27237376,0.9999527626298249,88.0050221500727
8.303501824,0.9999239569767276,86.297632558651
8.3346304,0.9998965591494292,84.59099331675992
8.365758976,0.9998711578737383,82.88505962225474
8.39688704,0.9998479921121163,81.17986742100318
8.428015616,0.9998278375179057,79.47536385705575
8.459144192,0.9998107535917368,77.7715162299424
8.490272256,0.9997973337591946,76.06830615146335
8.521400832,0.9997876621343306,74.36571315073138
8.552529408,0.9997820357831899,72.66366154037769
8.583657472,0.9997804870042379,70.9621791684857
8.614786048,0.9997831330877338,69.26118696899233
8.645914624,0.9997898993022045,67.56064999228323
8.6770432,0.9998007364012497,65.86053416583444
8.708170752,0.9998152901970379,64.1608306157307
8.739299328,0.9998334731891567,62.46147668256715
8.770427904,0.9998548537780888,60.762456886493375
8.80155648,0.9998791524391102,59.06372824991039
8.832685056,0.9999057399352476,57.36530532630979
8.863813632,0.9999342985045092,55.66708088642951
8.894941184,0.9999642708006851,53.96913016271023
8.92606976,0.999995113949803,52.271386923031784
8.957198336,1.0000261343826808,50.5738598758469
8.988326912,1.0000568817543043,48.87652554607166
9.019455488,1.0000866425561064,47.179407952565626
9.050584064,1.00011506053247,45.48249972801547
9.081711616,1.0001413580327898,43.78578984953133
9.112840192,1.0001652742013325,42.08930513663656
9.143968768,1.0001861473086342,40.39306115272698
9.175097344,1.0002036676950001,38.697079569345064
9.20622592,1.0002175558758672,37.001375570685035
9.237354496,1.0002274905629711,35.305988215673146
9.268482048,1.0002331944141212,33.61091429018487
9.299610624,1.000234562702742,31.916190089447113
9.3307392,1.0002316872389856,30.221866108178357
9.361867776,1.0002245013193447,28.527926944043752
9.392996352,1.0002130816604076,26.83442776722092
9.424124928,1.0001976832429995,25.141394580128434
9.45525248,1.0001785386363877,23.448851237231512
9.486381056,1.0001561871619193,21.75681166722327
9.517509632,1.000130717904103,20.065280467159024
9.548638208,1.0001028073659186,18.37430518161816
9.579766784,1.0000729160149135,16.683850077758912
9.61089536,1.0000415778650493,14.993956050937127
9.642022912,1.0000093970256334,13.30462461969708
9.673151488,0.9999769356060054,11.615827201662757
9.704280064,0.999944921472555,9.927586375730296
9.73540864,0.999913834843156,8.239888297526186
9.766537216,0.9998842996467578,6.5526772493996726
9.797665792,0.9998567808810015,4.86598137852658
9.828793344,0.9998320493368495,3.179744338596324
9.85992192,0.999810315287358,1.49393003791703
9.891050496,0.9997920785579681,-0.1914667165543357
9.922179072,0.9997778661108062,-1.8765106329439512
9.953307648,0.9997677898289519,-3.5612122840947213
9.984436224,0.9997620779302778,-5.245646791142072
10.015563776,0.999760852931094,-6.9298534173699045
10.046692352,0.9997641489772437,-8.613853581317809
10.077820928,0.9997719829666174,-10.29770642563171
10.108949504,0.9997842751045793,-11.981443883173341
10.14007808,0.9998005970511576,-13.66511471056805
10.171206656,0.9998208643344341,-15.348780231459934
10.202334208,0.9998445933268075,-17.032448254051673
10.233462784,0.9998715082950815,-18.71613805447278
10.26459136,0.9999009317261518,-20.399946537687963
10.295719936,0.999932433551728,-22.08385097792905
10.326848512,0.9999653070729017,-23.767874473564362
10.357977088,0.9999991449895029,-25.452055204396128
10.38910464,1.0000330630522898,-27.136405143697136
10.420233216,1.0000666127702544,-28.82090949095074
10.451361792,1.0000991102316623,-30.505585510077736
10.482490368,1.0001299731005742,-32.19045551064306
10.513618944,1.0001585053244446,-33.87545874514374
10.54474752,1.0001842497475357,-35.5606441860309
10.575875072,1.000206663532569,-37.24595226791969
10.607003648,1.0002253885022132,-38.9313956146206
10.638132224,1.0002399882050292,-40.616910726585346
10.6692608,1.0002501295157868,-42.30250850038122
10.700389376,1.0002557139854193,-43.98816987352933
10.731517952,1.0002564127509594,-45.67382605197843
10.762645504,1.0002525195389085,-47.359494478250454
10.79377408,1.0002437803104232,-49.045107677365934
10.824902656,1.0002304656478571,-50.73064776616515
10.856031232,1.0002128314532985,-52.41611086651778
10.887159808,1.0001910523500306,-54.101438195220425
10.918288384,1.0001657600987297,-55.78661623964437
10.949415936,1.0001371580887704,-57.471646567399766
10.980544512,1.0001059118252507,-59.15649339313517
11.011673088,1.0000725847133187,-60.841147567582055
11.042801664,1.0000377472993862,-62.52559218806819
11.07393024,1.0000020796370988,-64.20984995552732
11.105058816,0.9999663466121345,-65.89391378807031
11.136186368,0.9999309892215694,-67.57777403923897
11.167314944,0.9998968958138686,-69.26147679500961
11.19844352,0.9998645473293161,-70.94502297709323
11.229572096,0.999834654283571,-72.62842908298717
11.260700672,0.9998077998344801,-74.31174238902337
11.291829248,0.9997845851255637,-75.99497044222936
11.3229568,0.9997652424285426,-77.67815609295957
11.354085376,0.9997503603845765,-79.36137225181037
11.385213952,0.9997401335164188,-81.04462406224495
11.416342528,0.9997347376850511,-82.72795821428298
11.447471104,0.9997344766029597,-84.41143849459961
11.47859968,0.9997392332403848,-86.09508935642208
11.509727232,0.9997489703956088,-87.77898271624927
11.540855808,0.9997635046851965,-89.46315575091205
11.571984384,0.9997826628277346,-91.14763688259417
11.60311296,0.9998060478690776,-92.83248125046042
11.634241536,0.9998333166613412,-94.51770896636457
11.665370112,0.9998638848385188,-96.20338881157384
11.696497664,0.9998972189150762,-97.88953638224748
11.72762624,0.9999326964649904,-99.57615590295494
11.758754816,0.9999696989063241,-101.26329483245317
11.789883392,1.000007552110121,-102.95095664979844
11.821011968,1.000045448825936,-104.63916438032112
11.852140544,1.0000828058367328,-106.32790090970289
11.883268096,1.0001187700363863,-108.01716080373605
11.914396672,1.0001527714995337,-109.70698559206524
11.945525248,1.0001841356420884,-111.39731250598273
11.976653824,1.0002122429987432,-113.0881291944548
12.0077824,1.000236585890297,-114.77943912333093
12.038910976,1.0002566280090024,-116.47119352110286
12.070038528,1.0002719435344034,-118.16334958284564
12.101167104,1.0002823208674305,-119.85591180959207
12.13229568,1.0002874834580597,-121.54884605516068
12.163424256,1.0002872675884389,-123.24206620123267
12.194552832,1.0002817845272702,-124.9355757302295
12.225681408,1.000270911968139,-126.62930928074823
12.25680896,1.0002550060828852,-128.32324757926472
12.287937536,1.0002341571284117,-130.01736345288276
12.319066112,1.0002089166703845,-131.71159357609443
12.350194688,1.0001795622395457,-133.4059334609724
12.381323264,1.000146670499813,-135.10034594009622
12.41245184,1.0001108877520817,-136.79480104276587
12.443579392,1.0000729270004443,-138.48929072233253
12.474707968,1.0000333228199438,-140.18379427162785
12.505836544,0.9999929193034871,-141.87830163407384
12.53696512,0.9999524601531411,-143.5728203699614
12.568093696,0.9999126629337517,-145.26735518210293
12.599222272,0.9998743816700109,-146.9619048905296
12.630349824,0.9998381333301138,-148.65648386598525
12.6614784,0.999804847060854,-150.35112877651017
12.692606976,0.9997750245028061,-152.0458452758247
12.723735552,0.9997492325230641,-153.740668611252
12.754864128,0.9997281804878908,-155.43563734694874
12.785992704,0.9997120899590884,-157.1307905193881
12.817120256,0.9997013092573961,-158.8261660404463
12.848248832,0.9996961447449572,-160.52181531294985
12.879377408,0.999696749380302,-162.2177730485202
12.910505984,0.9997030627940686,-163.91408598594006
12.94163456,0.9997150762162683,-165.61081633277274
12.972763136,0.9997325716829842,-167.30797625213017
13.003890688,0.9997553127479171,-169.00563098305145
13.035019264,0.9997827928004871,-170.70382062444003
13.06614784,0.9998145868527412,-172.40256162613446
13.097276416,0.9998502188761034,-174.1019135975901
13.128404992,0.9998889305060429,-175.80186713832015
13.159533568,0.9999300371717523,-177.50249555432407
13.19066112,0.999972878197433,-179.20376589636754
13.221789696,1.0000164046692857,179.09427249415893
13.252918272,1.0000601983461146,177.391661287626
13.284046848,1.0001030647973614,175.68837265940235
13.315175424,1.0001444482366424,173.9844114083718
13.346304,1.0001834103117504,172.27980338679689
13.377431552,1.0002193868286935,170.5745814456653
13.408560128,1.0002513535066444,168.8687582816598
13.439688704,1.0002790951488674,167.1623848424532
13.47081728,1.0003016736505015,165.45547714004394
13.501945856,1.0003188893853086,163.74809542284842
13.533074432,1.0003301461128113,162.04027490655707
13.564201984,1.0003355687449307,160.33206780436615
13.59533056,1.0003345463498599,158.62354082356381
13.626459136,1.0003272758439847,156.91471475476686
13.657587712,1.0003140162752477,155.20567123034735
13.688716288,1.000294539855185,153.49643873917825
13.719844864,1.0002695499104446,151.7870707634843
13.750972416,1.0002392202450594,150.07762929101787
13.782100992,1.000204239773217,148.36816153961942
13.813229568,1.0001651194882333,146.65868911244345
13.844358144,1.0001225408675036,144.94925708427076
13.87548672,1.000077390812557,143.23988989872427
13.906615296,1.0000302705748756,141.5306070957232
13.937742848,0.99998229270434,139.8214333001422
13.968871424,0.9999341968998611,138.11237301671054
14.0,0.9998869750148324,136.40344454766452
