freq,mag,phase
6.0,1.0000026811687832,123.41985001582428
6.040201216,1.000000171263156,120.67758907155522
6.08040192,0.999998373782945,117.93847245845488
6.120603136,0.9999965755061175,115.20243755377605
6.16080384,0.9999950187465246,112.4693996867662
6.201005056,0.9999935981700955,109.73925628077576
6.241206272,0.9999922594048293,107.01197173314159
6.281406976,0.9999911492914343,104.28741724425433
6.321608192,0.9999901065814913,101.56552195076706
6.361808896,0.9999892726575124,98.84618156198937
6.402010112,0.9999885057150467,96.12929507597622
6.442210816,0.9999879468415113,93.41478730827261
6.482412032,0.9999874888527843,90.7025180711239
6.522613248,0.9999872796518542,87.99243129877136
6.562813952,0.9999869683839103,85.28440386641842
6.603015168,0.999986838577208,82.57833301589314
6.643215872,0.9999868424750851,79.87408970339672
6.683417088,0.9999868447357776,77.17160403050897
6.723618304,0.9999869683999439,74.47074203824764
6.763819008,0.9999872238580727,71.77138853284801
6.804020224,0.9999873486226176,69.07346027421744
6.844220928,0.99998760299617,66.3768092812258
6.884422144,0.9999879630066927,63.68134199365323
6.92462336,0.9999882342508137,60.986941901120176
6.964824064,0.9999885622516602,58.293459228753264
7.00502528,0.9999888720389292,55.600844233403386
7.045225984,0.9999891633291441,52.90893583383245
7.0854272,0.9999894448904985,50.21763312651491
7.125627904,0.9999898186420785,47.52679752451924
7.16582912,0.9999902386916769,44.836330218481486
7.206030336,0.9999905482762309,42.1461322279407
7.24623104,0.999990883282227,39.45604088764473
7.286432256,0.9999912620473148,36.76596647323564
7.32663296,0.9999916575583192,34.07581047008135
7.366834176,0.9999921447195764,31.385403338880604
7.407035392,0.9999926228991444,28.69468788446907
7.447236096,0.9999931551136253,26.00351825497004
7.487437312,0.999993679281287,23.31177326773312
7.527638016,0.9999943122215639,20.6193623137983
7.567839232,0.9999950893668509,17.926153582312054
7.608040448,0.9999959912719838,15.232038967964503
7.648241152,0.9999969049880791,12.536920188549523
7.688442368,0.9999979612997126,9.840675770973132
7.728643072,0.9999990943114834,7.1431981342862745
7.768844288,1.0000005163894388,4.444381070092158
7.809044992,1.0000018230913534,1.7441218932224147
7.849246208,1.0000034308853678,-0.9576792916252413
7.889447424,1.000005180235339,-3.661143508240146
7.929648128,1.0000069839491839,-6.366348312956272
7.969849344,1.0000089677387902,-9.073386751823527
8.010050048,1.0000109464336582,-11.782391837579121
8.050251264,1.0000131953472053,-14.493402651878972
8.09045248,1.0000154563743333,-17.20656005488077
8.130653184,1.000017743640606,-19.921919815521036
8.1708544,1.0000201665412767,-22.639570434891635
8.211055104,1.000022643652301,-25.359624570979527
8.25125632,1.0000251252239625,-28.082121278321402
8.291457536,1.000027578455399,-30.807169868140804
8.33165824,1.0000299141071256,-33.534812650603214
8.371859456,1.0000322423008563,-36.26515481921876
8.41206016,1.0000345489794258,-38.998220743273265
8.452261376,1.0000366340572941,-41.73410571309889
8.49246208,1.0000385551860798,-44.472866144649636
8.532663296,1.0000403328983556,-47.214558066490255
8.572864512,1.0000417705902231,-49.95921597566298
8.613065728,1.0000429789433845,-52.706903830247676
8.65326592,1.0000439759328283,-55.45764324694053
8.693467136,1.0000445857311309,-58.211504589604445
8.733668352,1.0000448111517317,-60.96850629399402
8.773869568,1.0000446507203073,-63.728685763661325
8.814070784,1.0000441641833915,-66.4920670093478
8.854270976,1.0000431079802674,-69.25866006971472
8.894472192,1.0000417372825623,-72.02850509631658
8.934673408,1.0000399490921617,-74.80158964283467
8.974874624,1.0000376864022824,-77.5779568875561
9.01507584,1.0000349630753804,-80.35758483892755
9.055276032,1.0000317450127334,-83.14048006318143
9.095477248,1.0000281947879188,-85.92662960876882
9.135678464,1.0000242815361036,-88.71605892955557
9.17587968,1.0000198632693855,-91.50871588322535
9.216080896,1.0000152151747967,-94.30459444802653
9.256281088,1.0000101271541466,-97.1036701524637
9.296482304,1.000004838005729,-99.90593553814207
9.33668352,0.9999993018976882,-102.71132452174882
9.376884736,0.9999935716123884,-105.51983806599917
9.417084928,0.9999876871659481,-108.33141992250772
9.457286144,0.9999817650114402,-111.14601494023074
9.49748736,0.9999758669200863,-113.96358837299667
9.537688576,0.9999699362353964,-116.78408046915682
9.577889792,0.9999641170967587,-119.60745123997222
9.618089984,0.9999585561537958,-122.43361826099306
9.6582912,0.9999532507121841,-125.2625269091381
9.698492416,0.9999482198354126,-128.0941060372866
9.738693632,0.9999435341024403,-130.9282789332009
9.778894848,0.999939346836154,-133.76499314331483
9.81909504,0.9999357066806512,-136.60413844551618
9.859296256,0.9999325059143522,-139.44564839673987
9.899497472,0.9999299950679927,-142.2894410870846
9.939698688,0.9999281573193818,-145.1353982407229
9.979899904,0.9999269870656637,-147.98345771060346
10.020100096,0.9999266114498204,-150.8335336159539
10.060301312,0.9999269812444056,-153.68549475402995
10.100502528,0.9999281815506833,-156.53923373862432
10.140703744,0.9999300995496707,-159.394688293037
10.18090496,0.9999328292386378,-162.25170562526884
10.221105152,0.9999365090302216,-165.11020641013013
10.261306368,0.9999408842009013,-167.97006711419178
10.301507584,0.9999460360428931,-170.8311625332989
10.3417088,0.999951839727149,-173.69338890415042
10.381910016,0.9999584840616098,-176.55663061572128
10.422110208,0.9999656843657186,-179.4207738980064
10.462311424,0.9999735620039438,177.7143418575835
10.50251264,0.9999818759394468,174.84880542512374
10.542713856,0.999990627391351,171.98275374740987
10.582915072,0.9999998385230504,169.11630655098648
10.623115264,1.000009269157611,166.2496010188874
10.66331648,1.0000188917943256,163.38277658566014
10.703517696,1.0000286576317345,160.51591333080754
10.743718912,1.0000384592863314,157.64917761560565
10.783919104,1.0000480909642502,154.7827139427022
10.82412032,1.0000575365858957,151.91661100188608
10.864321536,1.0000667691878773,149.05104388313373
10.904522752,1.000075493462383,146.18612677051289
10.944723968,1.0000836661496781,143.32197809198152
10.98492416,1.0000913226889638,140.45872601696396
11.025125376,1.0000981661082067,137.5965010112742
11.065326592,1.0001043787437354,134.73544269370507
11.105527808,1.0001096226175326,131.87563775212232
11.145729024,1.0001139895738587,129.01726723719977
11.185929216,1.0001172534542013,126.16041669608478
11.226130432,1.0001195108495917,123.30519596505512
11.266331648,1.00012065089646,120.45175743667869
11.306532864,1.0001205783088596,117.60018153648328
11.34673408,1.0001193956662124,114.75059794464815
11.386934272,1.000117060303009,111.90310758106713
11.427135488,1.0001134775155847,109.05781668208152
11.467336704,1.0001087580359294,106.21484966700294
11.50753792,1.0001029224261964,103.37427500873652
11.547739136,1.0000959003371346,100.53619610982727
11.587939328,1.000087912028819,97.70070884066521
11.628140544,1.0000788684837096,94.86789653864963
11.66834176,1.000068989060933,92.03785296053601
11.708542976,1.000058191336449,89.21063225386342
11.748744192,1.0000466432622281,86.38632083078413
11.788944384,1.0000344184305276,83.56499001296496
11.8291456,1.000021856915084,80.74670410635822
11.869346816,1.0000087365362587,77.93151811837497
11.909548032,0.9999953224026659,75.11949135982005
11.949749248,0.9999818717425805,72.31065519202178
11.98994944,0.9999683328287812,69.50506187173183
12.030150656,0.9999549542283882,66.70276990017574
12.070351872,0.9999418597919812,63.903775849192336
12.110553088,0.9999291506349498,61.10814328387313
12.15075328,0.9999169649044924,58.315872471175496
12.190954496,0.9999054352926829,55.526983905340224
12.231155712,0.9998947060852889,52.74148967748806
12.271356928,0.9998849360927462,49.959377621382316
12.311558144,0.999876187990288,47.18069347189735
12.351758336,0.9998685468056341,44.40539772885382
12.391959552,0.9998621392851326,41.63350274607207
12.432160768,0.9998570303007849,38.864978665028374
12.472361984,0.9998532953157915,36.0998209032767
12.5125632,0.9998510756314498,33.337982298572065
12.552763392,0.99985023107362,30.579475752989346
12.592964608,0.9998509105160615,27.82423474945845
12.633165824,0.9998531695462453,25.0722434320566
12.67336704,0.9998569490241828,22.32346168160033
12.713568256,0.9998621647730557,19.57784080918091
12.753768448,0.9998689145360985,16.83533991272476
12.793969664,0.9998769492644334,14.095892099381178
12.83417088,0.9998865681452213,11.359471851003562
12.874372096,0.999897318617361,8.625999903464386
12.914573312,0.9999092491972628,5.895430897186571
12.954773504,0.9999221814514208,3.1677048630217013
12.99497472,0.999936215270456,0.4427464052251407
13.035175936,0.9999510364655882,-2.2795171437731665
13.075377152,0.999966645159376,-4.999143968113147
13.115578368,0.9999827157477246,-7.71618958289981
13.15577856,0.9999992596353695,-10.430750087684943
13.195979776,1.0000159393536798,-13.142897731112413
13.236180992,1.000032812586947,-15.852702062152002
13.276382208,1.0000495151419584,-18.560234475205235
13.316583424,1.0000659442015878,-21.26558289601703
13.356783616,1.0000820540796003,-23.968842306120624
13.396984832,1.0000975357979174,-26.6700534876623
13.437186048,1.0001122707746748,-29.369346503182786
13.477387264,1.0001261320089863,-32.066770196587306
13.517587456,1.000138903454454,-34.76242213864734
13.557788672,1.000150483345977,-37.45639217972943
13.597989888,1.00016080708787,-40.1487677161346
13.638191104,1.0001696316284463,-42.83961901400622
13.67839232,1.0001768581978099,-45.52905051993601
13.718592512,1.000182576894132,-48.21713657623328
13.758793728,1.0001864766225794,-50.903978872415045
13.798994944,1.0001886455562161,-53.589652706212064
13.83919616,1.0001889562207305,-56.274270425662685
13.879397376,1.0001873410607973,-58.95790122970988
13.919597568,1.0001839286358758,-61.640633907933115
13.959798784,1.0001785726395929,-64.3225798629226
14.0,1.000171360246577,-67.00380901352345
