freq,mag,phase
6.0,1.0009328186960846,-16.567815837009164
6.013559296,1.000881742878486,-17.061619154107778
6.027118592,1.0007923605017546,-17.554881746997463
6.040677888,1.0006674789386403,-18.047087192681285
6.054237184,1.0005123300607588,-18.53786160952298
6.06779648,1.0003340431191008,-19.02693474947956
6.081355776,1.0001404993827367,-19.513926422696763
6.094915072,0.9999404336271347,-19.998871422573487
6.108474368,0.9997426976812382,-20.481607473968072
6.122033664,0.9995564798932943,-20.962239136390973
6.135593472,0.9993901392969494,-21.440993687243598
6.149152768,0.9992511332471853,-21.918181231410422
6.162712064,0.9991459894041165,-22.394112453046013
6.17627136,0.999079404122644,-22.869276930944178
6.189830656,0.9990543779454619,-23.344140961988813
6.203389952,0.9990725504903332,-23.819197112782554
6.216949248,0.9991328618268118,-24.294985903760743
6.230508544,0.9992328261167692,-24.77203575007326
6.24406784,0.9993679978148163,-25.250882682187743
6.257627136,0.9995323951461071,-25.731747065601606
6.271186432,0.999718497124062,-26.215020821835893
6.284745728,0.999918275406014,-26.700971714104043
6.298305024,1.000122444863402,-27.18966463350357
6.31186432,1.0003217682516568,-27.68110267979366
6.325423616,1.0005075278329225,-28.175182309786905
6.338982912,1.000671232789937,-28.671685226416486
6.352542208,1.000805325474651,-29.17034624122726
6.366101504,1.000903694926837,-29.67069335461717
6.3796608,1.0009620063649323,-30.172276217029378
6.393220096,1.0009773489480542,-30.674639748461853
6.406779904,1.0009489576109762,-31.177165138428336
6.4203392,1.0008782445970454,-31.679449131486564
6.433898496,1.0007677488463549,-32.180918289318306
6.447457792,1.00062279298024,-32.68114927885534
6.461017088,1.000449753130354,-33.17973073870113
6.474576384,1.000256305181284,-33.676354026008525
6.48813568,1.0000506888297311,-34.17084995873558
6.501694976,0.9998428503412308,-34.66309261867943
6.515254272,0.9996418128485204,-35.15312805733573
6.528813568,0.9994564616871308,-35.64109969085998
6.542372864,0.9992955733725265,-36.12720445863865
6.55593216,0.9991663598717785,-36.61182970268979
6.569491456,0.9990747230430622,-37.095406822925206
6.583050752,0.9990247056655098,-37.57841031796404
6.596610048,0.9990192016244019,-38.06128438330405
6.610169344,0.999058000514736,-38.544696008855944
6.62372864,0.9991397873517542,-39.02911849138002
6.637287936,0.9992610134746992,-39.515045100969196
6.650847232,0.9994161012852047,-40.00295439420816
6.664406528,0.9995983549278152,-40.49322995430911
6.677966336,0.9997994196734229,-40.98613266496155
6.691525632,1.0000104410420023,-41.48189687314896
6.705084928,1.0002218331604704,-41.98049935690635
6.718644224,1.0004241005381176,-42.48192302637701
6.73220352,1.0006081152274666,-42.986044031952574
6.745762816,1.000765619640167,-43.49253313713374
6.759322112,1.0008893664295362,-44.001088178550596
6.772881408,1.0009737133691814,-44.51119274715988
6.786440704,1.001014702494821,-45.022382142766766
6.8,1.0010105395490407,-45.53413452378144
6.813559296,1.0009611241825906,-46.045870076015156
6.827118592,1.0008685650076068,-46.55706580686226
6.840677888,1.000736865467138,-47.06721613192564
6.854237184,1.0005721061590922,-47.575877734965786
6.86779648,1.0003812626769344,-48.08269661825141
6.881355776,1.000173033597319,-48.58739798765851
6.894915072,0.9999566718123046,-49.0898062064531
6.908474368,0.9997418961372473,-49.58987088930655
6.922033664,0.9995383988881277,-50.08769079638042
6.935593472,0.9993553811006042,-50.583468928640066
6.949152768,0.9992012239229723,-51.07745098576591
6.962712064,0.9990830606065442,-51.57005485364698
6.97627136,0.9990060546450382,-52.061792352357024
6.989830656,0.9989738987533731,-52.55316379079238
7.003389952,0.9989882722346233,-53.04468566779524
7.016949248,0.9990485539557276,-53.53695947929812
7.030508544,0.9991521755828069,-54.03055005587198
7.04406784,0.9992948030173643,-54.52594451792258
7.057627136,0.9994698933916158,-55.02357071969675
7.071186432,0.9996696971603545,-55.523782171665175
7.084745728,0.99988503349076,-56.026875717191984
7.098305024,1.000106703148481,-56.532913501428474
7.11186432,1.0003244030805385,-57.04199152174423
7.125423616,1.0005284537463848,-57.553948991819155
7.138982912,1.0007096067985357,-58.068553022138445
7.152542208,1.0008598008511942,-58.58553845752008
7.166101504,1.0009719894593414,-59.10444509262674
7.1796608,1.0010411066243854,-59.6248150440892
7.193220096,1.0010636937964783,-60.14605910161424
7.206779904,1.0010391649462884,-60.66763911895532
7.2203392,1.0009679227869623,-61.188940941863336
7.233898496,1.0008534113936944,-61.709485410982396
7.247457792,1.0007003340989717,-62.22872969238885
7.261017088,1.0005156898827945,-62.746241220558346
7.274576384,1.000307415392678,-63.26165897650082
7.28813568,1.000085008482608,-63.77481125170815
7.301694976,0.9998584159095492,-64.28554774037165
7.315254272,0.9996377068277611,-64.79388567450782
7.328813568,0.9994328716783007,-65.29990491990625
7.342372864,0.9992533849084306,-65.80387814369176
7.35593216,0.9991070576494266,-66.3061874676518
7.369491456,0.9990009605739509,-66.80726951461699
7.383050752,0.9989396515181065,-67.30762767118206
7.396610048,0.9989262542826064,-67.80779423641069
7.410169344,0.9989615014106419,-68.30842031107211
7.42372864,0.9990439875109841,-68.81006912024732
7.437287936,0.9991700275317124,-69.31332045929727
7.450847232,0.9993341217123426,-69.81865688368246
7.464406528,0.9995291642282551,-70.32649447939191
7.477966336,0.9997459434081999,-70.8371676387701
7.491525632,0.9999754085538318,-71.35087017716538
7.505084928,1.0002069049311662,-71.86774682300668
7.518644224,1.0004302029184764,-72.38767056760302
7.53220352,1.0006350606941723,-72.91061890111257
7.545762816,1.000812350383686,-73.43617209532061
7.559322112,1.0009539920824286,-73.96405131228533
7.572881408,1.0010534795046233,-74.49373453697241
7.586440704,1.00110637623726,-75.02469794044804
7.6,1.0011099357918154,-75.55635503747291
7.613559296,1.0010640652404474,-76.08809938310523
7.627118592,1.0009705118819876,-76.61932536869914
7.640677888,1.0008333261686393,-77.14955191238292
7.654237184,1.0006586545013525,-77.67816111847536
7.66779648,1.0004539446755094,-78.20484847573405
7.681355776,1.0002285636240955,-78.7292715604513
7.694915072,0.9999924388164775,-79.25117364073084
7.708474368,0.9997560125767563,-79.77053709578304
7.722033664,0.9995302195807184,-80.28743371435192
7.735593472,0.9993249977208536,-80.80195900064987
7.749152768,0.9991497714571559,-81.31451653801892
7.762712064,0.9990124682444564,-81.82549360599977
7.77627136,0.9989194978500058,-82.33534804415704
7.789830656,0.9988750406440745,-82.84466282993607
7.803389952,0.9988813159793546,-83.35406959428929
7.816949248,0.9989383508818274,-83.86417518046245
7.830508544,0.9990434199622865,-84.3756051695425
7.84406784,0.9991923477711343,-84.88887787990248
7.857627136,0.9993783464743357,-85.40453894408118
7.871186432,0.999593205668718,-85.92295049533759
7.884745728,0.9998272930050789,-86.44443579649855
7.898305024,1.0000701696548433,-86.96916215710802
7.91186432,1.0003110900940304,-87.49717874812089
7.925423616,1.0005392680862109,-88.0284000365725
7.938982912,1.0007440505937886,-88.56261907737041
7.952542208,1.000916487554178,-89.0994681288899
7.966101504,1.0010486974931379,-89.63853200438312
7.9796608,1.0011346484379093,-90.17929915873142
7.993220096,1.0011702986211983,-90.7211240443821
8.006779904,1.0011536844436757,-91.2634509930783
8.0203392,1.001085828511913,-91.80560046217605
8.033898496,1.0009691549343858,-92.34702697466484
8.047457792,1.000808977598041,-92.88711531620012
8.061017088,1.0006121841563071,-93.42539248804499
8.074576384,1.0003874696400339,-93.96141572950329
8.08813568,1.0001449104726992,-94.49495494584097
8.101694976,0.999895246054834,-95.02586923058625
8.115254272,0.9996497032429121,-95.5540588326254
8.128813568,0.9994192440559097,-96.07971314059297
8.142372864,0.999214408711136,-96.60299581039475
8.15593216,0.9990442801610993,-97.12432099616464
8.169491456,0.998916779723785,-97.64416458883873
8.183050752,0.9988377904582543,-98.1630325125058
8.196610048,0.9988111566110401,-98.6815685843924
8.210169344,0.9988381134385925,-99.20044638919137
8.22372864,0.9989175148652707,-99.72026111160235
8.237287936,0.9990463126093468,-100.2416876241646
8.250847232,0.9992185273566146,-100.76524704422384
8.264406528,0.9994268867476278,-101.29145338479634
8.277966336,0.9996618729941424,-101.82070832308283
8.291525632,0.999913184173866,-102.35328312894568
8.305084928,1.0001695110268674,-102.88926262716798
8.318644224,1.0004195529865212,-103.42868363660021
8.33220352,1.0006517879681662,-103.97138071720633
8.345762816,1.00085612745258,-104.51709336864987
8.359322112,1.0010230120184265,-105.06542104038013
8.372881408,1.0011449288169958,-105.61584235371
8.386440704,1.0012163123335232,-106.16782261197785
8.4,1.001233693805993,-106.72072206136626
8.413559296,1.0011962993292955,-107.2738484410901
8.427118592,1.001105328322597,-107.82656306127927
8.440677888,1.0009648931790038,-108.37824471414764
8.454237184,1.0007808405944045,-108.92829156592357
8.46779648,1.0005615331095468,-109.47627941576863
8.481355776,1.0003164608238717,-110.02178125319911
8.494915072,1.0000565646863178,-110.56455768902111
8.508474368,0.9997933186210113,-111.10444885963496
8.522033664,0.9995386424590746,-111.64157171071056
8.535593472,0.9993040639436463,-112.17601410921517
8.549152768,0.9990999782936896,-112.70809086905264
8.562712064,0.9989357848392051,-113.23824446549112
8.57627136,0.9988189947307796,-113.76700244710285
8.589830656,0.9987549705633005,-114.29496519597554
8.603389952,0.9987470518907956,-114.82279515104695
8.616948736,0.9987954962315795,-115.3511674656916
8.630508544,0.9988984490304138,-115.88079736270663
8.644067328,0.9990515069329665,-116.41227616305132
8.657627136,0.999247972821632,-116.9462465270205
8.671186944,0.9994791457580576,-117.48314733384032
8.684745728,0.9997348398748859,-118.02332284775862
8.698305536,1.0000037222730944,-118.56701440833454
8.71186432,1.0002737055356656,-119.11435090789249
8.725424128,1.0005326547338473,-119.66523300829849
8.738982912,1.0007690946490395,-120.2194914506584
8.75254272,1.0009722975803568,-120.77676105784992
8.766101504,1.0011329704584278,-121.33660655198733
8.779661312,1.001243894973982,-121.89848089161526
8.793220096,1.0012998336871208,-122.46172053129656
8.806779904,1.0012982728257944,-123.02564568719032
8.820338688,1.0012387202847166,-123.5895979613139
8.833898496,1.0011238472804225,-124.15284033847122
8.84745728,1.000958599448364,-124.7147250222412
8.861017088,1.000749997652205,-125.27472245169481
8.874575872,1.0005072817191791,-125.83234173165945
8.88813568,1.0002411102131386,-126.3871849806486
8.901694464,0.9999632970152179,-126.93906952718585
8.915254272,0.9996863617084242,-127.48789816230581
8.928813056,0.999422433727955,-128.03379283817083
8.942372864,0.999183702245516,-128.57692279572717
8.955932672,0.99898077503809,-129.11766743933586
8.969491456,0.9988230176558348,-129.6565248730419
8.983051264,0.9987175694048689,-130.19407891968964
8.996610048,0.9986694444755504,-130.73098617839986
9.010169856,0.9986811024108674,-131.26797045393528
9.02372864,0.9987521569993832,-131.80575604260795
9.037288448,0.9988796215198986,-132.34509078043445
9.050847232,0.9990581867320123,-132.88655308692987
9.06440704,0.9992798953398618,-133.43077613781702
9.077965824,0.9995350605099133,-133.97822677288622
9.091525632,0.9998122454174772,-134.52926192483133
9.105084416,1.0000991763861944,-135.0840328373025
9.118644224,1.0003832181292525,-135.64261119314475
9.132203008,1.0006514772184831,-136.20491103746548
9.145762816,1.000891917452995,-136.77060845035442
9.1593216,1.0010938197402812,-137.3393844768855
9.172881408,1.0012478939432798,-137.91063361612467
9.186440192,1.0013471545188921,-138.4838182439219
9.2,1.001386819833225,-139.05817415390445
9.213559808,1.0013649781364984,-139.63302365030006
9.227118592,1.00128235669854,-140.20760539819406
9.2406784,1.0011424150331467,-140.78116167672837
9.254237184,1.00095096862304,-141.35310409295082
9.267796992,1.0007164711310124,-141.9227861965658
9.281355776,1.0004492737461026,-142.4897828181344
9.294915584,1.0001610101537446,-143.05374218308685
9.308474368,0.9998645198690524,-143.61446899086798
9.322034176,0.9995729710706142,-144.17192092179377
9.33559296,0.9992995714616746,-144.72624917516944
9.349152768,0.9990565721399516,-145.27773990937155
9.362711552,0.9988548650565487,-145.82680112346475
9.37627136,0.9987038469172969,-146.37403146191033
9.389830144,0.9986104411690876,-146.92003103940354
9.403389952,0.9985790888212557,-147.4655499537332
9.416948736,0.9986115360913912,-148.0113781884759
9.430508544,0.9987064061539539,-148.55825267942322
9.444067328,0.9988598865813959,-149.10694292621955
9.457627136,0.9990653430917549,-149.65810928231568
9.471186944,0.9993136888666361,-150.21232046746607
9.484745728,0.9995941356458853,-150.77006023147737
9.498305536,0.9998941639737591,-151.33164286260643
9.51186432,1.0002004848696022,-151.89723768969503
9.525424128,1.0004994274970809,-152.46682246772352
9.538982912,1.0007775116070299,-153.04025910364388
9.55254272,1.0010223652641201,-153.6171975382805
9.566101504,1.0012229418432368,-154.19716438619946
9.579661312,1.0013700615816887,-154.77959791461694
9.593220096,1.0014568832795923,-155.3637877535819
9.606779904,1.0014794420447224,-155.94901374885177
9.620338688,1.0014362946444484,-156.5344519405852
9.633898496,1.0013290766096552,-157.11932246494786
9.64745728,1.001162304589425,-157.70289392597778
9.661017088,1.000943167950883,-158.28446425006925
9.674575872,1.0006811621851457,-158.86344907443308
9.68813568,1.0003876959009275,-159.43940348718544
9.701694464,1.0000756884043416,-160.01198129784024
9.715254272,0.9997591110015935,-160.5810732618
9.728813056,0.9994520597939044,-161.14664839985534
9.742372864,0.9991681771565513,-161.70893419533303
9.755932672,0.9989204269604738,-162.26825405395897
9.769491456,0.9987200020096325,-162.82511086819068
9.783051264,0.9985760156141299,-163.38012743171635
9.796610048,0.9984952827208811,-163.93404374127115
9.810169856,0.9984817924076385,-164.48764975617945
9.82372864,0.9985362716357727,-165.04176483188968
9.837288448,0.9986567184934785,-165.59720320500563
9.850847232,0.9988380680989694,-166.15475951877585
9.86440704,0.999072519576358,-166.7150757121072
9.877965824,0.9993495624148234,-167.2788274883539
9.891525632,0.9996573252904952,-167.84639761668421
9.905084416,0.9999819478289562,-168.41810433476059
9.918644224,1.0003092161438307,-168.99408346796145
9.932203008,1.0006243207828107,-169.57427523510998
9.945762816,1.0009133624672637,-170.15842750512996
9.9593216,1.0011632327059399,-170.74619662597365
9.972881408,1.0013626726411158,-171.33698133754908
9.986440192,1.0015025791913987,-171.93017775334872
10.0,1.0015763659771542,-172.52497915098402
10.013559808,1.0015805173502161,-173.120607724483
10.027118592,1.0015144482201437,-173.71619718902846
10.0406784,1.0013807110120858,-174.31092352495716
10.054237184,1.0011851139762682,-174.90398083052244
10.067796992,1.0009358889475453,-175.49466953041198
10.081355776,1.000643849623904,-176.08239516717813
10.094915584,1.0003217893844554,-176.66671351646747
10.108474368,0.9999839315149069,-177.24730658155698
10.122034176,0.9996453314226517,-177.82408699707514
10.13559296,0.9993208966945281,-178.39709028772057
10.149152768,0.9990253522093937,-178.96660090498523
10.162711552,0.9987720587373975,-179.53301457414761
10.17627136,0.9985724668565711,179.90308192165472
10.189830144,0.9984359142099053,179.34099478518957
10.203389952,0.9983686479132059,178.77992462295185
10.216948736,0.9983742614493204,178.2189891209015
10.230508544,0.998452678039025,177.65732516146335
10.244067328,0.9986009594787363,177.0940284215287
10.257627136,0.9988125696826222,176.52831435369444
10.271186944,0.9990784183004597,175.95945301493924
10.284745728,0.9993871931868474,175.38683250709582
10.298305536,0.9997248075361502,174.81000885407258
10.31186432,1.0000767941473543,174.22874831457437
10.325424128,1.000427310490388,173.64294262219886
10.338982912,1.000760751100885,173.05269061255785
10.35254272,1.0010621609043242,172.45831693596017
10.366101504,1.0013180112572897,171.86023738814234
10.379661312,1.001516738910234,171.25910443403663
10.393220096,1.0016491265917808,170.65566041105998
10.406779904,1.0017088148352908,170.05072213143515
10.420338688,1.0016931137542262,169.445194199744
10.433898496,1.0016021359890042,168.83997123166722
10.44745728,1.0014395303820813,168.2359985428384
10.461017088,1.0012121210229457,167.63404837405756
10.474575872,1.0009294938093454,167.0348904265132
10.48813568,1.0006043142240368,166.43911323479574
10.501694464,1.0002504770050862,165.84717678503037
10.515254272,0.9998836222388973,165.2593337517458
10.528813056,0.9995200506814693,164.6756715877931
10.542372864,0.9991760996406179,164.09606090150552
10.555932672,0.998867158325987,163.52019322563018
10.569491456,0.9986072171848565,162.94757711125376
10.583051264,0.9984080837869149,162.37755888921933
10.596610048,0.9982791081692494,161.80931312237496
10.610169856,0.9982264947801255,161.24197764420342
10.62372864,0.9982529888971226,160.67461908145665
10.637288448,0.9983578123876725,160.10626377057963
10.650847232,0.9985366713495522,159.53597082242317
10.66440704,0.9987820687874454,158.96288592946664
10.677965824,0.9990833347439931,158.38626327645517
10.691525632,0.9994273827698194,157.80548088130348
10.705084416,0.9997989135697471,157.22013070718234
10.718644224,1.0001817022063035,156.6299431366069
10.732203008,1.0005586690853565,156.03490751814815
10.745762816,1.0009130752094266,155.4351443958988
10.7593216,1.0012288973993753,154.83105113501833
10.772881408,1.0014920251835755,154.22317522817067
10.786440192,1.0016903745538925,153.61221065971796
10.8,1.0018147556100088,152.998978933819
10.813559808,1.001859401146466,152.38442429821495
10.827118592,1.0018216490250877,151.7695155654933
10.8406784,1.0017028935437604,151.15523991324443
10.854237184,1.001507754735997,150.54258136373156
10.867796992,1.0012446353699644,149.93235570747106
10.881355776,1.0009244835391264,149.3254059496478
10.894915584,1.0005614689975255,148.72230359439607
10.908474368,1.000171449599758,148.12350565013816
10.922034176,0.999771400139476,147.529257276592
10.93559296,0.999379310646329,146.93957866569684
10.949152768,0.9990125588039034,146.35431554534188
10.962711552,0.9986877317983027,145.7730687870209
10.97627136,0.9984196540203155,145.19523040364123
10.989830144,0.9982205672530491,144.62005355112626
11.003389952,0.9980998012411738,144.04666323207496
11.016948736,0.9980632661719417,143.47410172200958
11.030508544,0.9981131296366573,142.9012581764313
11.044067328,0.9982476854988043,142.32713543819602
11.057627136,0.9984613406735857,141.75073327199664
11.071186944,0.9987452430501425,141.17111812429008
11.084745728,0.999086809367325,140.58749063875848
11.098305536,0.9994713736782975,139.99927635530466
11.11186432,0.999881880482029,139.40600939908316
11.125424128,1.0003003616183885,138.80748477561568
11.138982912,1.0007082681198456,138.2037009687168
11.15254272,1.001087024633178,137.5949100070758
11.166101504,1.0014200012825607,136.98153901801572
11.179661312,1.0016919982813524,136.36422953689222
11.193220096,1.001890480678924,135.7437995405974
11.206779904,1.002006347768295,135.12115326256153
11.220338688,1.002033903085115,134.49733654661517
11.233898496,1.0019713681620277,133.87344628033725
11.24745728,1.0018207973457516,133.25053383557886
11.261017088,1.0015883873967353,132.62965611473948
11.274575872,1.0012840124052589,132.01170801777778
11.28813568,1.0009203997303027,131.3975309895641
11.301694464,1.0005136770196776,130.78775073211975
11.315254272,1.0000813576753735,130.1828159354066
11.328813056,0.9996425515983639,129.5829392831687
11.342372864,0.99921685035323,128.9881248287548
11.355932672,0.9988232249830804,128.39808408316927
11.369491456,0.9984794124470291,127.81235056565444
11.383051264,0.9982014212482964,127.23026964995438
11.396610048,0.998001710276145,126.65094133370764
