freq,mag,phase
6.0,1.0000790333504457,-42.21536067859321
6.010443776,1.0000864588644545,-42.60989505130666
6.020887552,1.0000920103770248,-43.004531157544534
6.03133184,1.0000932225126702,-43.39924241913074
6.041775616,1.000090187625067,-43.794002043598006
6.052219392,1.0000834114709645,-44.18874966079415
6.062663168,1.0000729125441636,-44.58335390607266
6.073106944,1.0000590631551824,-44.97785725620233
6.08355072,1.000042831238261,-45.37219992094299
6.093995008,1.0000246458762798,-45.766316113977524
6.104438784,1.0000057474873498,-46.160266357194025
6.11488256,0.9999870380127431,-46.553962357495905
6.125326336,0.9999695561971328,-46.94747831140151
6.135770112,0.9999539486338095,-47.34082244635786
6.146213888,0.9999408238541665,-47.734004450583505
6.156658176,0.9999311973484886,-48.12705834852164
6.167101952,0.9999252340012189,-48.52003651015984
6.177545728,0.9999237112122463,-48.91298870155726
6.187989504,0.9999262322969303,-49.305985558473175
6.19843328,0.9999328644525216,-49.699074487700166
6.208877056,0.9999434230125941,-50.09226297582328
6.219321344,0.9999570100363554,-50.48566223108454
6.22976512,0.9999731941632806,-50.879285333688706
6.240208896,0.9999912884640587,-51.273142881544175
6.250652672,1.0000100943561987,-51.66730598644964
6.261096448,1.0000292591872033,-52.06169350636556
6.271540224,1.000047002181855,-52.45636199656063
6.281984512,1.0000630306768532,-52.85127157439234
6.292428288,1.0000764578022598,-53.24637546554529
6.302872064,1.0000865915638601,-53.641663098832716
6.31331584,1.0000927849468206,-54.037144137805505
6.323759616,1.0000948101194673,-54.43261974608881
6.334203904,1.0000926419204157,-54.82817524970453
6.34464768,1.0000862519754732,-55.223719773801136
6.355091456,1.0000759348878143,-55.619131519514475
6.365535232,1.000062438429578,-56.01443991860126
6.375979008,1.0000462383645672,-56.409617327989345
6.386422784,1.0000279823142848,-56.80456892702364
6.396867072,1.0000089683532167,-57.19933841116868
6.407310848,0.9999896330752556,-57.593874694799325
6.417754624,0.9999714221668272,-57.98814695548329
6.4281984,0.9999548537673272,-58.382278411562446
6.438642176,0.9999412017027174,-58.776219951954275
6.449085952,0.9999307698361269,-59.17007108094241
6.45953024,0.9999240703149193,-59.56379361569892
6.469974016,0.9999215532861495,-59.957489178919054
6.480417792,0.9999235379021129,-60.35122137964088
6.490861568,0.9999295012252827,-60.74500967934901
6.501305344,0.9999396098845611,-61.13898752357391
6.51174912,0.9999530904199039,-61.53308598981316
6.522193408,0.9999693071155631,-61.9274149273876
6.532637184,0.9999874983754788,-62.32197960299746
6.54308096,1.0000067212058896,-62.71682918494807
6.553524736,1.0000262067724581,-63.11195945781963
6.563968512,1.000044835589438,-63.50735378556516
6.574412288,1.000061571024178,-63.90299429151069
6.584856576,1.0000757672970093,-64.2988721129458
6.595300352,1.0000866786721694,-64.69491086727011
6.605744128,1.0000937029678927,-65.09113443995413
6.616187904,1.0000965780692341,-65.48739436373192
6.62663168,1.0000948850843596,-65.88373698403241
6.637075968,1.0000891260935358,-66.28004926327185
6.647519744,1.0000793663692964,-66.67629358157335
6.65796352,1.0000658817589163,-67.07240075896061
6.668407296,1.0000496905570302,-67.46838068644546
6.678851072,1.0000312818108041,-67.86412600749814
6.689294848,1.0000119224263386,-68.25966706882798
6.699739136,0.9999924065968998,-68.6549717997443
6.710182912,0.999973484561327,-69.05007755725352
6.720626688,0.999956190753269,-69.44494050004626
6.731070464,0.9999415174594305,-69.83967660155118
6.74151424,0.9999302443569592,-70.23422051030425
6.751958016,0.9999228476654328,-70.6286938521054
6.762402304,0.9999195587527409,-71.02316273352365
6.77284608,0.9999207659608601,-71.41760702736967
6.783289856,0.9999262413788853,-71.81210064847977
6.793733632,0.9999358505411287,-72.20672969928202
6.804177408,0.9999491122355824,-72.60154849169645
6.814621184,0.9999652752701348,-72.99656231354324
6.825065472,0.9999835492908902,-73.39185718326566
6.835509248,1.0000032794425269,-73.78735484120187
6.845953024,1.0000231576831335,-74.1831900307058
6.8563968,1.0000422899246941,-74.57928550943923
6.866840576,1.0000599862212958,-74.97564532818302
6.877284352,1.0000749043335182,-75.37224202287368
6.88772864,1.000086714066097,-75.76902652741198
6.898172416,1.0000945171033673,-76.1659620863396
6.908616192,1.0000982266805838,-76.56301956313702
6.919059968,1.0000974570668033,-76.96008828829387
6.929503744,1.0000921139348644,-77.3571720951327
6.939948032,1.0000827482602024,-77.75416857943353
6.950391808,1.0000696470881112,-78.15106527682397
6.960835584,1.00005339634088,-78.5478136235169
6.97127936,1.000035105895662,-78.94434503741938
6.981723136,1.0000153406472028,-79.34063316792918
6.992166912,0.9999951120843723,-79.73673445796753
7.0026112,0.9999755889846019,-80.13258020800492
7.013054976,0.9999576640736492,-80.52822389711034
7.023498752,0.9999421828455313,-80.92365634456414
7.033942528,0.9999299656009685,-81.3189419565458
7.044386304,0.9999215905956264,-81.71417948213103
7.05483008,0.999917476433084,-82.10930301851472
7.065274368,0.9999179084966648,-82.50444676076488
7.075718144,0.9999228809071986,-82.89963131002358
7.08616192,0.9999320277268675,-83.29494013244114
7.096605696,0.9999449575653526,-83.69039758954662
7.107049472,0.9999611475656858,-84.08607420060841
7.117493248,0.9999796397336633,-84.4819992937376
7.127937536,0.999999401741477,-84.87822132341745
7.138381312,1.0000199459690047,-85.27467684011256
7.148825088,1.000039697019748,-85.67146864095457
7.159268864,1.0000581410257554,-86.06850454103552
7.16971264,1.0000739311500533,-86.46581303498354
7.180156416,1.00008664215428,-86.86328447895892
7.190600704,1.0000954801573763,-87.26089846303341
7.20104448,1.000099905630727,-87.65867924242423
7.211488256,1.000099830400529,-88.05650826756717
7.221932032,1.0000952591300298,-88.45432027351943
7.232375808,1.0000863898154333,-88.85207823651417
7.242820096,1.000073462940421,-89.249725280799
7.253263872,1.000057464272247,-89.64718970832601
7.263707648,1.0000388060074905,-90.04448420741359
7.274151424,1.00001884537209,-90.4415345620593
7.2845952,0.9999981496802317,-90.83835874630915
7.295038976,0.999977881597445,-91.23495560765433
7.305483264,0.9999592402656654,-91.63128182115533
7.31592704,0.9999428787953278,-92.02741114040182
7.326370816,0.9999296881397568,-92.4234502163626
7.336814592,0.999920367701926,-92.81929290125343
7.347258368,0.999915464183914,-93.2150952175079
7.357702144,0.999915277667712,-93.61088380094598
7.368146432,0.9999195683964653,-94.0067223207394
7.378590208,0.999928188991345,-94.40267689366719
7.389033984,0.9999408925493061,-94.79876566280457
7.39947776,0.9999567964313194,-95.19509199034013
7.409921536,0.9999754040825333,-95.59164252396117
7.420365312,0.999995745147803,-95.98847753394412
7.4308096,1.0000165518699395,-96.38558451036903
7.441253376,1.0000370742718643,-96.78297482504277
7.451697152,1.0000561491239541,-97.18066283902928
7.462140928,1.0000729126652188,-97.57861049729625
7.472584704,1.0000865619875954,-97.97676547577238
7.48302848,1.0000962735431251,-98.37507977545579
7.493472768,1.0001017006417305,-98.77353688517945
7.503916544,1.0001022790562604,-99.17206919400681
7.51436032,1.0000983695442716,-99.57056699432603
7.524804096,1.0000900621833673,-99.96902793604492
7.535247872,1.0000774840721849,-100.36740568502832
7.54569216,1.0000615117470268,-100.7655765956131
7.556135936,1.0000428428278534,-101.1635761547974
7.566579712,1.0000224817179184,-101.56133328500647
7.577023488,1.0000012769127467,-101.95884214948903
7.587467264,0.9999804316778762,-102.35612592859962
7.59791104,0.9999609198879058,-102.75317651509599
7.608355328,0.999943729576442,-103.14998918033943
7.618799104,0.999929655978052,-103.54665853207285
7.62924288,0.9999194478013581,-103.94315772776137
7.639686656,0.9999135586125363,-104.33958883975033
7.650130432,0.9999123809249767,-104.7360159652761
7.660574208,0.9999161098779742,-105.1324282388138
7.671018496,0.9999242287470264,-105.52898789439608
7.681462272,0.9999366227957351,-105.9256866163117
7.691906048,0.999952375728247,-106.32256704450006
7.702349824,0.9999712021537045,-106.71973053794726
7.7127936,0.9999916587548161,-107.11713584080132
7.723237376,1.0000130675129129,-107.51483012933134
7.733681664,1.0000342605656778,-107.91281555582809
7.74412544,1.0000541441705202,-108.31110918575176
7.754569216,1.0000719066408117,-108.70964884646061
7.765012992,1.0000864330281942,-109.10843334373536
7.775456768,1.0000970596576417,-109.50738347115922
7.785900544,1.0001033798240129,-109.90649850563004
7.796344832,1.000104894692838,-110.3056565081102
7.806788608,1.000101730535338,-110.70483102081344
7.817232384,1.0000938896825826,-111.10397947405362
7.82767616,1.0000816760338893,-111.50300423270363
7.838119936,1.000065852523597,-111.90184326746713
7.848564224,1.000047073167347,-112.30052179903845
7.859008,1.0000263810523324,-112.69895673992346
7.869451776,1.0000047498682936,-113.09713817686368
7.879895552,0.999983178807421,-113.49507608907633
7.890339328,0.9999628875926805,-113.8927564406379
7.900783104,0.9999447482892571,-114.2902281444246
7.911227392,0.9999297481113784,-114.68746853177346
7.921671168,0.9999185330960505,-115.08459033522666
7.932114944,0.9999117838475509,-115.48159976156143
7.94255872,0.9999097783277779,-115.87858716888992
7.953002496,0.9999126287578334,-116.2755873876731
7.963446272,0.9999202115764112,-116.67268243731915
7.97389056,0.9999321955445128,-117.06991188217445
7.984334336,0.9999479217211861,-117.46736655398425
7.994778112,0.9999667766988207,-117.8650436318486
8.005221888,0.9999875202393619,-118.26299740119009
8.015665664,1.0000094881511634,-118.66122800170106
8.02610944,1.0000314068783218,-119.05977950326972
8.036553728,1.0000520578378478,-119.45863222517461
8.046997504,1.000070734872281,-119.8577453892437
8.05744128,1.0000862782577946,-120.25711164608273
8.067885056,1.000097888330333,-120.65663375140001
8.078328832,1.0001051476702498,-121.05633643251925
8.088772608,1.000107677407024,-121.45610397974484
8.099216896,1.0001051739138018,-121.85590499395482
8.109660672,1.0000978665618465,-122.25565632605974
8.120104448,1.000086061243037,-122.65531059832013
8.130548224,1.0000703716168193,-123.05479930679388
8.140992,1.0000515527777252,-123.45409939121065
8.151435776,1.0000305756453889,-123.85316944894988
8.161880064,1.000008436946354,-124.25196454887605
8.17232384,0.9999862924069045,-124.65050139574032
8.182767616,0.9999650489525145,-125.04877995733253
8.193211392,0.9999459567922225,-125.44682650537445
8.203655168,0.9999298472166387,-125.84466617392643
8.214099456,0.9999177029015428,-126.2423337278466
8.224543232,0.9999099356551618,-126.63989154909443
8.234987008,0.999907033875653,-127.03739925710543
8.245430784,0.9999091572997152,-127.43492269284287
8.25587456,0.9999161100007414,-127.83251003249421
8.266318336,0.9999277227594516,-128.2302487022041
8.276762624,0.9999433286205304,-128.62815491157912
8.2872064,0.999962109705483,-129.02633243604052
8.297650176,0.9999832637898216,-129.42478186024786
8.308093952,1.0000056824569852,-129.8235108141111
8.318537728,1.0000282525291733,-130.22253358585598
8.328981504,1.0000498726406997,-130.62189299004808
8.339425792,1.0000694714832523,-131.02151996433474
8.349869568,1.0000860625994883,-131.42139125693348
8.360313344,1.0000988324474471,-131.82146653190824
8.37075712,1.0001070207357896,-132.2217167218706
8.381200896,1.0001103600534782,-132.622050013112
8.391644672,1.0001087175026429,-133.0224213543477
8.40208896,1.0001019985953281,-133.4227401468531
8.412532736,1.0000906712420452,-133.82297705954278
8.422976512,1.0000752011366683,-134.22303439464207
8.433420288,1.0000563247761873,-134.62294420506183
8.443864064,1.0000350423144349,-135.0225634425326
8.45430784,1.0000124311674672,-135.42193329770353
8.464752128,0.9999895284361906,-135.8210328222209
8.475195904,0.9999674945248846,-136.21986574269795
8.48563968,0.999947356814026,-136.61842199125016
8.496083456,0.9999303347014807,-137.01680779421218
8.506527232,0.9999170308562337,-137.41496701361052
8.51697152,0.9999082082071594,-137.81301365294993
8.527415296,0.9999043556268661,-138.21098408293528
8.537859072,0.9999055874811905,-138.60898061290266
8.548302848,0.99991195492647,-139.00701379096657
8.558746624,0.9999230868633404,-139.40518559327012
8.5691904,0.9999384992280468,-139.80354604298216
8.579634688,0.9999573115743642,-140.20212147985126
8.590077952,0.9999788247572731,-140.60101396362225
8.600521728,1.0000017156159027,-141.00016807559203
8.610966528,1.000024970546687,-141.3996815258708
8.621410304,1.0000475205209605,-141.79946228144885
8.63185408,1.0000680533395698,-142.1995237876948
8.642297856,1.0000856899193116,-142.5998832650908
8.652741632,1.0000994897786712,-143.00044536767487
8.663185408,1.0001088621975769,-143.40118865146124
8.673629184,1.0001132589987864,-143.80201888940886
8.68407296,1.0001123487339034,-144.20289169889853
8.694516736,1.0001063690426832,-144.60373301072931
8.704960512,1.0000954392502377,-145.00449860798733
8.715404288,1.0000801946618885,-145.40509909966204
8.725848064,1.000061363387077,-145.80549906208887
8.736292864,1.0000398007625368,-146.20567986626742
8.74673664,1.000016673184583,-146.60554368889552
8.757180416,0.9999930203659522,-147.00517933101648
8.767624192,0.9999700797727442,-147.40450124253599
8.778067968,0.9999490296973209,-147.80357061858635
8.788511744,0.9999308358213912,-148.20234572787004
8.79895552,0.9999164661873603,-148.60098415311526
8.809399296,0.9999065158377237,-148.99947899350218
8.819843072,0.9999016634143386,-149.39788090734942
8.830286848,0.9999020789850859,-149.796237490458
8.840730624,0.999907753212736,-150.19470553445186
8.851175424,0.9999184140616639,-150.59324663283405
8.8616192,0.9999335031584837,-150.9919842459947
8.872062976,0.9999524499019095,-151.39094323731217
8.882506752,0.9999741287155062,-151.79018822575222
8.892950528,0.9999975261057413,-152.1897109253596
8.903394304,1.000021499656657,-152.58957032843296
8.91383808,1.0000448507102642,-152.9897539803192
8.924281856,1.0000664926148932,-153.39024534644545
8.934725632,1.000085311839588,-153.7910007266752
8.945169408,1.000100237467633,-154.19197826098448
8.955613184,1.0001106724320534,-154.59314954310986
8.96605696,1.0001161426407075,-154.9944457373147
8.97650176,1.0001161680885255,-155.39576210844297
8.986945536,1.00011088014259,-155.79706806095675
8.997389312,1.000100461703709,-156.1982897955347
9.007833088,1.0000854740298208,-156.59935801377375
9.018276864,1.0000665767269323,-157.00025403178068
9.02872064,1.0000448103361665,-157.40088607614845
9.039164416,1.0000211671250592,-157.80125102236187
9.049608192,0.9999968558971406,-158.201303172136
9.060051968,0.9999729788501457,-158.60105350937897
9.070495744,0.9999508916123426,-159.00054045629147
9.08093952,0.999931541218461,-159.39975819148563
9.09138432,0.9999159662690523,-159.79878322105785
9.101828096,0.9999049224456886,-160.19764018433014
9.112271872,0.9998989780788987,-160.59638467642125
9.122715648,0.999898558694284,-160.99512038577265
9.133159424,0.9999033982262752,-161.39388373098012
9.1436032,0.9999135802459838,-161.7927519746819
9.154046976,0.9999283667709359,-162.1917989999324
9.164490752,0.9999472367531241,-162.59107809393524
9.174934528,0.9999691939336774,-162.99062036195397
9.185378304,0.9999931078929405,-163.39046315353207
9.19582208,1.0000178651547873,-163.79064569469926
9.206265856,1.0000421545746871,-164.19115234551896
9.216710656,1.000064869516138,-164.59197659391634
9.227154432,1.0000848225308934,-164.99305077809677
9.237598208,1.0001009037513537,-165.39440622265002
9.248041984,1.0001125684479801,-165.79593706827058
9.25848576,1.0001190444752532,-166.1976072178703
9.268929536,1.0001200597083615,-166.59933019732165
9.279373312,1.0001155928180638,-167.00106776030356
9.289817088,1.0001056855407082,-167.4026970914291
9.300260864,1.0000910587945082,-167.80418924484556
9.31070464,1.0000721905341385,-168.2054922095878
9.321148416,1.0000501146410485,-168.60652508601157
9.331592192,1.0000259869708554,-169.007281891088
9.342036992,1.000000908362431,-169.40773247023807
9.352480768,0.9999760878053358,-169.80786260157774
9.362924544,0.9999528641891339,-170.20773019883455
9.37336832,0.9999324119118306,-170.60731038322024
9.383812096,0.9999155539629186,-171.00663291557467
9.394255872,0.9999033128360622,-171.40579254484692
9.404699648,0.9998962990980851,-171.80484835068688
9.415143424,0.9998947643135534,-172.2038691459766
9.4255872,0.9998988843813778,-172.60289150544355
9.436030976,0.9999085013445435,-173.00203139676992
9.446474752,0.9999230191856573,-173.40132267306038
9.456919552,0.9999417965409857,-173.80083242122834
9.467363328,0.9999639753915929,-174.2006337729172
9.477807104,0.9999884446032391,-174.60072167970532
9.48825088,1.000013976801758,-175.0011275293599
9.498694656,1.0000391694642952,-175.40189159122815
9.509138432,1.0000629215099632,-175.80297505817546
9.519582208,1.00008408252951,-176.20436528521256
9.530025984,1.000101543178806,-176.60600342986717
9.54046976,1.00011444751816,-177.00784707267363
9.550913536,1.0001220418070318,-177.40984639993522
9.561357312,1.000124118140461,-177.8118973317318
9.571801088,1.0001204304009337,-178.2139750052366
9.582245888,1.0001111748528915,-178.61595719465967
9.592689664,1.000096758066721,-179.01780072924922
9.60313344,1.0000780389811368,-179.41945755180666
9.613577216,1.0000557917718933,-179.82083477884714
9.624020992,1.0000311060245428,179.77805947162702
9.634464768,1.0000051816230402,179.37726842570976
9.644908544,0.9999794994667071,178.9768141717231
9.65535232,0.999955135157669,178.57666210781014
9.665796096,0.9999334111356812,178.17679067307193
9.676239872,0.9999153680779317,177.77716864651808
9.686683648,0.9999017533000757,177.37777728248443
9.697128448,0.9998935468975717,176.97848445237088
9.707572224,0.9998909749698321,176.57925609118612
9.718016,0.9998942469613843,176.1800350803453
9.728459776,0.9999032476678058,175.7807128722534
9.738903552,0.9999174228838621,175.381232232654
9.749347328,0.999936102784091,174.9815501617077
9.759791104,0.9999585075654229,174.58159268588108
9.77023488,0.999983474094011,174.18131771481674
9.780678656,1.000009730841023,173.78071692759886
9.791122432,1.000035942940803,173.3797532216405
9.801566208,1.00006089735498,172.97847789467457
9.812009984,1.0000833006628354,172.57688424933013
9.822454784,1.0001020479180878,172.17501056078135
9.83289856,1.000116316320666,171.77291600453495
9.843342336,1.000125145971539,171.37067512060574
9.853786112,1.0001283204066354,170.96833943114697
9.864229888,1.000125378791028,170.56601338954445
9.874673664,1.0001168357869836,170.16371993166018
9.88511744,1.000102837869878,169.76157546399438
9.895561216,1.00008428534515,169.35965155086816
9.906004992,1.0000617040782942,168.95795922315887
9.916448768,1.0000365263187208,168.55656111312823
9.926892544,1.0000098889080526,168.1555103643698
9.93733632,0.9999831555243224,167.75479445097636
9.94778112,0.9999577034426956,167.3543848931971
9.958224896,0.9999346480240341,166.95430797787682
9.968668672,0.9999151369492074,166.5544924274771
9.979112448,0.9999002546213231,166.1548912781967
9.989556224,0.9998907208361087,165.7554493513821
10.0,0.9998870971564352,165.35607197464458
10.010443776,0.9998893828919302,164.95668966686026
10.020887552,0.9998977470073944,164.55726879344354
10.031331328,0.9999115076612323,164.15768823546594
10.041775104,0.9999300764084732,163.75789218736833
10.05221888,0.9999527370497336,163.3578176629539
10.06266368,0.9999781689556532,162.957460782375
10.073107456,1.000005202601106,162.5567197346437
10.083551232,1.0000324238397214,162.15564322189863
10.093995008,1.0000585703791944,161.7542467422252
10.104438784,1.0000823356351298,161.35249613866924
10.11488256,1.0001025100225298,160.95046687938228
10.125326336,1.0001180459396972,160.54818936526937
10.135770112,1.0001282061888737,160.14576072900397
10.146213888,1.0001325384429944,159.7432147723719
10.156657664,1.000130685944377,159.34066365578
10.16710144,1.0001227852344974,158.93816523881506
