freq,mag,phase
6.0,1.0000108702579604,-77.52459002699827
6.002285056,1.000063521964695,-77.64964060620373
6.004570112,1.000110448297297,-77.7753866491747
6.006855168,1.000150417660686,-77.90180683571927
6.009140224,1.0001809788114684,-78.02879767897825
6.01142528,1.0002004209644038,-78.156116945916
6.013710336,1.0002071068027791,-78.28371121543378
6.015995392,1.0002010594321784,-78.41121467892509
6.018280448,1.0001823934122485,-78.53864909544728
6.020565504,1.0001522135827632,-78.66570185797897
6.02285056,1.0001124791272338,-78.79234325980256
6.025135616,1.000065946804361,-78.91827231519491
6.027420672,1.0000151504178036,-79.04358026988413
6.029705728,0.9999636365180179,-79.16813070752612
6.031990784,0.9999144622677837,-79.29200103131116
6.03427584,0.9998711442576418,-79.41524151464866
6.036560896,0.9998359698579069,-79.53785201035755
6.038845952,0.9998114908917075,-79.66007186030414
6.041131008,0.9997990745692242,-79.78204588373498
6.043416064,0.9997995842585431,-79.90395104829807
6.04570112,0.999813079677675,-80.02597807707677
6.047986176,0.9998384595117661,-80.14833093993536
6.050271232,0.9998744283921671,-80.27108714559006
6.052556288,0.9999184880376895,-80.39449055589053
6.054841344,0.9999679189322083,-80.51858463463944
6.0571264,1.0000196911779602,-80.64344059996402
6.059411456,1.0000703663091226,-80.76904509445772
6.061696512,1.0001166456229154,-80.89540077720866
6.063981568,1.0001559566301403,-81.02238029799723
6.066266624,1.00018537098274,-81.14989269094066
6.06855168,1.0002032572725037,-81.27771929993987
6.070836736,1.000208356341435,-81.40580817907559
6.073121792,1.0002005175348594,-81.53384055714506
6.075406848,1.0001800391403246,-81.66170295377782
6.077691904,1.0001482188062534,-81.78921250262191
6.07997696,1.0001071393777914,-81.9162215682682
6.082262016,1.0000594942910404,-82.04256836928174
6.084547072,1.0000082544196875,-82.1682394435242
6.086832128,0.9999565006626153,-82.29317241341747
6.089117184,0.9999078269559152,-82.41738913820464
6.09140224,0.9998649794834552,-82.54094032442437
6.093687296,0.9998309229011298,-82.66399569426693
6.095972352,0.9998078415314853,-82.78659890762505
6.098257408,0.9997969613682002,-82.90901588144652
6.100542464,0.9997991837513576,-83.03134507620526
6.10282752,0.9998142648951079,-83.15386574564866
6.105112576,0.9998415399320548,-83.27664473844273
6.107397632,0.9998789197594721,-83.3999842462158
6.1096832,0.9999242572170965,-83.52393711208111
6.111968256,0.9999744839467108,-83.6485727651597
6.114253312,1.0000265750979571,-83.77394516948634
6.116538368,1.0000772016266786,-83.90014909593675
6.118823424,1.0001229604413078,-84.0270345527805
6.12110848,1.0001613467012407,-84.15457501786291
6.123393536,1.000189483605841,-84.28257890201307
6.125678592,1.0002059326835702,-84.41094329677276
6.127963648,1.00020925687762,-84.53944784400466
6.130248704,1.0001996565085247,-84.6679856312718
6.13253376,1.0001774771210798,-84.7962722088367
6.134818816,1.0001441100121982,-84.9241685875417
6.137103872,1.0001018146073315,-85.05153986162787
6.139388928,1.0000532893503349,-85.17826241842846
6.141673984,1.0000014301426912,-85.3042687712303
6.14395904,0.999949573174222,-85.4295528010779
6.146244096,0.9999009605381648,-85.55413153836383
6.148529152,0.9998590610407507,-85.6780320620661
6.150814208,0.9998261329406257,-85.80143516793336
6.153099264,0.9998042926171931,-85.92446465579653
6.15538432,0.9997952637627261,-86.04723782310332
6.157669376,0.9997992130895763,-86.17004311075276
6.159954432,0.9998162251514497,-86.29296302869548
6.162239488,0.9998448530399516,-86.41629073834702
6.164524544,0.999883709060626,-86.5400797343833
6.1668096,0.9999299934954196,-86.66454813302138
6.169094656,0.9999811324821305,-86.78971910862853
6.171379712,1.0000335188947682,-86.91564127135902
6.173664768,1.0000839852068222,-87.04234986856234
6.175949824,1.000129211648133,-87.1697885874871
6.17823488,1.000166519489349,-87.29783902598831
6.180519936,1.0001935449640138,-87.42633979238073
6.182804992,1.0002083013929324,-87.55523129406919
6.185090048,1.000209933929845,-87.68419025909947
6.187375104,1.0001986049811868,-87.81308073712832
6.18966016,1.000174725178488,-87.94181166267296
6.191945216,1.00013982610579,-88.07008466725041
6.194230272,1.0000962914350027,-88.19780948584147
6.196515328,1.0000467311571528,-88.32489071048148
6.198800384,0.9999943282591394,-88.45124964615597
6.20108544,0.99994248713917,-88.57681790721826
6.203370496,0.999894422109748,-88.7016790754867
6.205655552,0.999853112419899,-88.82594249034979
6.207940608,0.9998213255624271,-88.9496856820683
6.210225664,0.9998010405307249,-89.07307568587402
6.21251072,0.9997935456656913,-89.19628195769826
6.214795776,0.9997993287810377,-89.31943369631911
6.217080832,0.999817913460405,-89.44283800300907
6.219365888,0.999848299094622,-89.56661038154655
6.221650944,0.9998885456594522,-89.69090495456386
6.223936,0.9999360221410687,-89.81586980174036
6.226221056,0.9999877657701289,-89.94150381324268
6.228506112,1.000040400119907,-90.0679576326692
6.230791168,1.0000906811584929,-90.19520334335813
6.233076224,1.0001354714863333,-90.32312439078775
6.23536128,1.0001717458020916,-90.4516831267329
6.237646336,1.000197509830732,-90.58063860279239
6.239931392,1.000210652706314,-90.7099383406349
6.242216448,1.000210572871345,-90.83940545600434
6.244501504,1.0001974298041378,-90.96870998431261
6.24678656,1.000171943564438,-91.09775043378345
6.249071616,1.0001354083384384,-91.22640961645129
6.251356672,1.0000906068095192,-91.35446549067804
6.253641728,1.000040181162787,-91.48185650641632
6.255926784,0.9999873597769295,-91.60851843367122
6.25821184,0.999935433573787,-91.7344091523491
6.260496896,0.9998877620758004,-91.85961660110038
6.262781952,0.999847397095569,-91.98418837753991
6.265067008,0.9998168944732451,-92.10822215555122
6.267352064,0.9997979559647163,-92.23193947403648
6.26963712,0.999792104763066,-92.35551454784817
6.271922176,0.9997996890081028,-92.47910972515139
6.274207232,0.9998200942665465,-92.60292116058154
6.276492288,0.9998521038409859,-92.7271025567523
6.278777344,0.9998937072445042,-92.85182889723534
6.2810624,0.9999420638019739,-92.97725216950612
6.283347456,0.9999945581224388,-93.10342315336052
6.285632512,1.000047535548087,-93.23036055485156
6.287917568,1.0000975248116122,-93.35808562380761
6.290202624,1.0001415537281717,-93.4864693741334
6.29248768,1.0001768138431992,-93.61549665247733
6.294772736,1.0002010472962162,-93.7449579800779
6.297057792,1.000212641478252,-93.87466302119563
6.299342848,1.0002109638455112,-94.0044668308428
6.301627904,1.0001958683426302,-94.13420258895624
6.30391296,1.0001687088789701,-94.26363667645396
6.306198016,1.0001308208655204,-94.39259329755343
6.308483072,1.0000849023603169,-94.5209936553436
6.310768128,1.0000335075747364,-94.6486227861621
6.313053184,0.9999803093837419,-94.77556211866131
6.31533824,0.9999283831822097,-94.90172323051227
6.317623296,0.9998812089630333,-95.0272102974225
6.319908352,0.9998416305887826,-95.15209140580353
6.322193408,0.999812342501009,-95.27644523308877
6.324478976,0.9997950884064245,-95.40049116792751
6.326764032,0.9997909382420551,-95.52438347187625
6.329049088,0.9998002819440449,-95.64831934510492
6.331334144,0.9998223241971881,-95.7725199888864
6.3336192,0.9998560323051968,-95.89715620536403
6.335904256,0.9998989980838197,-96.02232145310077
6.338189312,0.9999484570099781,-96.14816804272986
6.340474368,1.0000013729414492,-96.27482057396446
6.342759424,1.0000543688966683,-96.40225155247684
6.34504448,1.000104223336205,-96.53042473441953
6.347329536,1.0001475155874762,-96.6592987003726
6.349614592,1.0001816418569782,-96.7887388314855
6.351899648,1.000204510775017,-96.91863702488384
6.354184704,1.0002145085233907,-97.04875380580641
6.35646976,1.000211062366682,-97.17895894532798
6.358754816,1.0001941356939184,-97.309022478569
6.361039872,1.0001652743852716,-97.43876560638823
6.363324928,1.000126094206368,-97.56799932347501
6.365609984,1.0000787836123826,-97.69666172282777
6.36789504,1.0000268638444454,-97.82459727615557
6.370180096,0.9999731198967565,-97.95180083627062
6.372465152,0.9999212452742016,-98.07821960322629
6.374750208,0.9998746659685334,-98.20395890236617
6.377035264,0.9998361024638508,-98.32909906436124
6.37932032,0.9998080589013467,-98.45374692666212
6.381605376,0.9997922886746243,-98.57808296121398
6.383890432,0.9997898813715291,-98.70232136360346
6.386175488,0.9998010004980769,-98.82656679641143
6.388460544,0.999824878250579,-98.9511718398105
6.3907456,0.999860018114264,-99.07618699639129
6.393030656,0.9999041260062693,-99.20178428482596
6.395315712,0.9999545554184285,-99.3280677148301
6.397600768,1.0000082575572842,-99.45516477360265
6.399885824,1.0000613910295326,-99.58301060321568
6.40217088,1.0001107877424433,-99.7116291888514
6.404455936,1.000153496801357,-99.84091670020567
6.406740992,1.0001863145581522,-99.97079235060096
6.409026048,1.000207770425192,-100.10109597323049
6.411311104,1.000216074915506,-100.23155590389312
6.41359616,1.0002106839415457,-100.3621343951417
6.415881216,1.000192281466995,-100.4925195955589
6.418166272,1.0001617560719303,-100.62255113523854
6.420451328,1.000121004801852,-100.75208729732157
6.422736384,1.0000726686585513,-100.8809786173288
6.42502144,1.0000200019961192,-101.00917233955352
6.427306496,0.9999660420114653,-101.13658849945686
6.429591552,0.9999143648992134,-101.26323414532943
6.431876608,0.9998681826887775,-101.38921801667637
6.434161664,0.999830632083251,-101.5145698970809
6.43644672,0.9998038931478818,-101.63949065899028
6.438731776,0.9997897527837246,-101.76411365212
6.441016832,0.9997891159997759,-101.88862413038896
6.443301888,0.999801889219568,-102.0132421249409
6.445586944,0.9998275596118396,-102.13816445414737
6.447872,0.9998642335723515,-102.2635699053363
6.450157056,0.9999097486820463,-102.38954486441109
6.452442112,0.9999610703318467,-102.51626325854048
6.454727168,1.0000152147666832,-102.64373483444001
6.457012224,1.0000684099006807,-102.77203365197566
6.45929728,1.000117382802249,-102.90108219145122
6.461582336,1.0001591545955022,-103.03077433866554
6.463867392,1.000190964418026,-103.16104803557288
6.466152448,1.0002109199842502,-103.29169927426962
6.468437504,1.0002174217081563,-103.42254434868384
6.47072256,1.0002103623530225,-103.55339784992665
6.473007616,1.0001901404991553,-103.68409946664693
6.475292672,1.0001578432566012,-103.81439772150286
6.477577728,1.0001157279261932,-103.94417810322088
6.479862784,1.000066448595467,-104.07327930018047
6.48214784,1.0000129094845283,-104.20169836590716
6.484432896,0.9999587159028895,-104.32931216288091
6.486717952,0.999907360551793,-104.45616634487133
6.489003008,0.9998618254497037,-104.58233986282553
6.491288064,0.9998252092098548,-104.70790596146558
6.49357312,0.9997998309852543,-104.83307202911129
6.495858176,0.9997872579040566,-104.95794230383125
6.498143232,0.9997884406734686,-105.08272200848396
6.500428288,0.9998030827750021,-105.2076588217865
6.502713344,0.999830345857189,-105.33290517579105
6.5049984,0.9998686665921181,-105.45863815643632
6.507283456,0.99991535713425,-105.58501499801312
6.509568512,0.9999676468160053,-105.71209664269463
6.511853568,1.0000221187423288,-105.83998803792151
6.514138624,1.000075396654569,-105.96865162325157
6.51642368,1.0001239537883801,-106.09809665879065
6.518708736,1.0001648320918357,-106.22816478931976
6.520993792,1.0001955103756794,-106.35878937199018
6.523278848,1.000213838441182,-106.48978650625592
6.525563904,1.000218713241477,-106.620953288719
6.52784896,1.0002097985798295,-106.75210930014174
6.530134016,1.000187757179299,-106.88303323264282
6.532419072,1.000153897445981,-107.01358429846287
6.534704128,1.000110398481145,-107.14357838772374
6.536989184,1.0000600447600096,-107.27290112996816
6.53927424,1.0000058701470653,-107.40148552772573
6.541559808,0.99995157732897,-107.52929544718532
6.543844864,0.9999003112855624,-107.65631723878997
6.54612992,0.9998554712912845,-107.78267082696907
6.548414976,0.9998198935601262,-107.90846008779158
6.550700032,0.999796040554828,-108.0338181226203
6.552985088,0.9997850844941534,-108.15888888365456
6.555270144,0.9997880254937854,-108.28394534615803
6.5575552,0.9998044173971425,-108.40915516540942
6.559840256,0.9998336515278616,-108.53468621803908
6.562125312,0.9998733404724914,-108.66077402208893
6.564410368,0.9999212363280766,-108.78747105247662
6.566695424,0.9999742845085404,-108.91492632985793
6.56898048,1.0000292495308796,-109.0431517388554
6.571265536,1.000082398988179,-109.17224489380862
6.573550592,1.0001305344842812,-109.30201817023942
6.575835648,1.0001704775825282,-109.43247840308746
6.578120704,1.0001998556435459,-109.5633967198213
6.58040576,1.0002166105719819,-109.69472332527226
6.582690816,1.0002197712620517,-109.82619094423555
6.584975872,1.0002091021569994,-109.95758566870512
6.587260928,1.0001852967995162,-110.08873532581075
6.589545984,1.0001498390404508,-110.21951558098702
6.59183104,1.0001049349266162,-110.3496999134548
6.594116096,1.000053459738923,-110.47917853420398
6.596401152,0.9999987750089787,-110.60791681296428
6.598686208,0.9999442384629115,-110.73583996620341
6.600971264,0.9998933349790723,-110.86304570038871
6.60325632,0.9998493567985106,-110.98953209827037
6.605541376,0.9998149160589215,-111.11547906885544
6.607826432,0.9997924062389394,-111.2410194273346
6.610111488,0.999783180810366,-111.36635444236308
6.612396544,0.9997879212371695,-111.49162899815721
6.6146816,0.9998061432589329,-111.61705687204642
6.616966656,0.9998369409054552,-111.7429065789912
6.619251712,0.9998781179225514,-111.86926604709953
6.621536768,0.9999272520601065,-111.9962814060247
6.623821824,0.9999810909381404,-112.12408851226508
6.62610688,1.0000363399983143,-112.25268060509221
6.628391936,1.0000894060920693,-112.38205597556313
6.630676992,1.0001369712179393,-112.51215468230565
6.632962048,1.0001760798943566,-112.64294298398733
6.635247104,1.000203911096119,-112.77418727279064
6.63753216,1.000219193274628,-112.90576536157394
6.639817216,1.0002205723712927,-113.03747753947421
6.642102272,1.0002080198823073,-113.16911568782774
6.644387328,1.0001824924271845,-113.30052091258646
6.646672384,1.0001454292621297,-113.43142068020555
6.64895744,1.0000992191975764,-113.5617831743887
6.651242496,1.0000468787725423,-113.69138595971077
6.653527552,0.9999915549149179,-113.82023781648147
6.655812608,0.9999368803975788,-113.94834101515411
6.658097664,0.9998864314088715,-114.07561323650398
6.66038272,0.9998430915515751,-114.20226682723973
6.662667776,0.9998098921593843,-114.3283448031551
6.664952832,0.9997889175517019,-114.4540242318437
6.667237888,0.9997814201356939,-114.57951308032615
6.669522944,0.9997879106769185,-114.704995861639
6.671808,0.9998080549402956,-114.83069504487077
6.674093056,0.9998403765645312,-114.95678549850051
6.676378112,0.9998830245434974,-115.08341774936814
6.678663168,0.9999332516696058,-115.21074349578043
6.680948224,0.9999879098709997,-115.33884041101147
6.68323328,1.0000433872467722,-115.46773835715828
6.685518336,1.0000964693616932,-115.59740529599657
6.687803392,1.000143368654374,-115.72784554393205
6.690088448,1.0001813554813996,-115.85892416312426
6.692373504,1.0002078724354106,-115.9904681333138
6.69465856,1.000221415749964,-116.12229258853097
6.696943616,1.0002211027424281,-116.25423508742114
6.699228672,1.0002067734082913,-116.38608189585437
6.701513728,1.0001794856856923,-116.51762552325889
6.703798784,1.0001407041540762,-116.64867769564904
6.70608384,1.0000934156603958,-116.77914976341597
6.708368896,1.000040036628462,-116.90885848531254
6.710653952,0.9999842922200067,-117.03783706181463
6.712939008,0.9999295275240517,-117.1659764433691
6.715224064,0.9998794482978863,-117.29336413160311
6.71750912,0.9998370434559327,-117.42009401027791
6.719794176,0.999805123901066,-117.54628157398045
6.722079232,0.9997856593880787,-117.67210146457008
6.724364288,0.9997798809174727,-117.79774663818486
6.726649344,0.999788177015693,-117.92339534793126
6.7289344,0.9998100060323899,-118.04931875038783
6.731219456,0.9998442013932588,-118.17565177782083
6.733504512,0.9998883118658362,-118.30255663290262
6.735789568,0.999939626157599,-118.4301162513248
6.738074624,0.9999949508251849,-118.55847703791085
6.74035968,1.0000506760183465,-118.68768401409153
6.742644736,1.0001033522149099,-118.8176370123652
6.744929792,1.0001496177346045,-118.9483612667638
6.747214848,1.000186602919205,-119.07966707136485
6.749499904,1.0002117352182307,-119.21149079032949
6.75178496,1.0002236374917384,-119.34352378440597
6.754070016,1.000221399281542,-119.4756493376357
6.756355072,1.0002052921960773,-119.60766500266283
6.75864064,1.000176198013678,-119.73935695778
6.760925696,1.0001359330906792,-119.8705321376036
6.763210752,1.000087273082514,-120.00108789953666
6.765495808,1.0000331136868381,-120.13088593262428
6.767780864,0.9999768138342972,-120.25990852313089
6.77006592,0.9999221146696703,-120.38809950007615
6.772350976,0.9998725127291603,-120.51555937990966
6.774636032,0.9998310744914811,-120.64235044498304
6.776921088,0.9998003706738058,-120.76861828211194
6.779206144,0.9997824108874004,-120.89457102253783
6.7814912,0.9997784588242782,-121.02033501145705
6.783776256,0.9997886705270859,-121.14616680968516
6.786061312,0.9998123863468096,-121.27224874952338
6.788346368,0.9998480513846749,-121.39873574736441
6.790631424,0.9998936061096675,-121.52585815458951
6.79291648,0.9999458928792452,-121.65370281759519
6.795201536,1.0000018911311102,-121.78231764852234
6.797486592,1.0000578802113498,-121.91177737486237
6.799771648,1.0001102450847539,-122.04200626244354
6.802056704,1.0001558524514362,-122.17293694615931
6.80434176,1.0001916038403968,-122.30451424571179
6.806626816,1.0002152990536115,-122.4365181591221
6.808911872,1.0002254711712846,-122.56875446356541
6.811196928,1.0002215672408772,-122.70101932832343
6.813481984,1.000203497113998,-122.833172162616
6.81576704,1.000172678957316,-122.96495039866159
6.818052096,1.0001309761344017,-123.09622733845463
6.820337152,1.0000809295249267,-123.22684904616459
6.822622208,1.0000259283335058,-123.35669267531684
6.824907264,0.9999693195621824,-123.48573678787187
6.82719232,0.9999146781999211,-123.61397808642839
6.829477376,0.9998656130953963,-123.74146351809215
6.831762432,0.9998250995732303,-123.86829988569794
6.834047488,0.999795719729211,-123.99462484257457
6.836332544,0.9997794231887998,-124.12062905073061
6.8386176,0.9997771661446492,-124.2465132042375
6.840902656,0.9997892420812634,-124.37247988968957
6.843187712,0.999814748095226,-124.49871357334214
6.845472768,0.9998520942174958,-124.62538181074926
6.847757824,0.9998989752492028,-124.75271149821342
6.85004288,0.9999523954842027,-124.88075149274385
6.852327936,1.00000895272833,-125.00958965999651
6.854612992,1.0000650372039255,-125.13926191928539
6.856898048,1.0001171441529975,-125.26970170190596
6.859183104,1.0001619647740225,-125.4008903933131
6.86146816,1.0001965621145221,-125.53265319862034
6.863753216,1.0002188378427306,-125.66482756113177
6.866038272,1.0002271777362834,-125.79722259605927
6.868323328,1.000221291358566,-125.92962158985372
6.870608384,1.0002014891008952,-126.06188704676644
6.87289344,1.000168888166418,-126.19373228468525
6.875178496,1.0001256975907624,-126.3250508913637
6.877463552,1.0000744615711006,-126.45568210365659
6.879748608,1.0000186702366103,-126.58553300862712
6.882033664,0.9999616874844315,-126.71460305709174
6.88431872,0.9999072472857197,-126.84286124840662
6.886603776,0.9998587111263875,-126.9703204478092
6.888888832,0.9998191476877054,-127.09720160071784
6.891173888,0.9997911522333394,-127.22354463881312
6.893458944,0.9997765099546038,-127.34959150489988
6.895744,0.9997761243907579,-127.47557630739104
6.898029056,0.9997900913000433,-127.60163630104294
6.900314112,0.9998174284945667,-127.72794446667206
6.902599168,0.999856353980709,-127.85481922095624
6.904884224,0.9999046806956787,-127.98225783639275
6.90716928,0.9999590228516284,-128.11052525504326
6.909454336,1.0000160788584072,-128.2395600870055
6.911739392,1.0000723124549018,-128.36943486458193
