freq,mag,phase
6.0,1.0000587200802131,-40.43551496848657
6.013445632,1.0001800725679713,-40.97200065099924
6.026890752,1.0002934266190453,-41.51015399210309
6.040336384,1.0003939479692083,-42.04994235685005
6.053781504,1.0004769237978368,-42.591081627721415
6.067227136,1.0005387245761008,-43.13341737275222
6.080672256,1.000576089424648,-43.6766453117301
6.094117888,1.0005877332445712,-44.220456386026505
6.107563008,1.0005725681582303,-44.76453063207478
6.12100864,1.0005316714093806,-45.30851394423147
6.13445376,1.000466443704833,-45.852177491809556
6.147899392,1.0003799966747642,-46.39516111871712
6.161344512,1.0002762028079966,-46.93725506319753
6.174790144,1.0001597503860293,-47.47824549874319
6.188235264,1.0000358742864477,-48.01807738131249
6.201680896,0.9999101324042351,-48.55663879851767
6.215126016,0.9997882625050973,-49.09394937639143
6.228571648,0.9996761908352474,-49.63005608413063
6.242016768,0.9995786387146178,-50.165178447066644
6.2554624,0.9995004433683896,-50.69946237145758
6.26890752,0.9994449756705664,-51.23324722066349
6.282353152,0.9994149696205705,-51.76669545635205
6.295798272,0.99941173541584,-52.300228083690236
6.309243904,0.9994358104578793,-52.83416160958099
6.322689024,0.9994858006116953,-53.36883914459973
6.336134656,0.9995597247515308,-53.904526074384655
6.349579776,0.9996540566341814,-54.441530650599944
6.363025408,0.9997649034092779,-54.980079069099546
6.376470528,0.9998870800002321,-55.520303815176376
6.38991616,1.0000148962900217,-56.06237557517468
6.40336128,1.0001427406889474,-56.60625175862637
6.416806912,1.0002646187598179,-57.15200369346375
6.430252032,1.0003749643159632,-57.69945201945645
6.443697664,1.00046882305442,-58.24842087154256
6.457142784,1.000541901343924,-58.798717965086084
6.470588416,1.000590487601163,-59.350051313767416
6.484033536,1.0006127061839127,-59.90211939810066
6.497479168,1.0006071585764063,-60.45460329146223
6.510924288,1.0005742186772038,-61.00708566552262
6.52436992,1.0005151072549463,-61.55934937693453
6.53781504,1.0004327056401918,-62.11099833005838
6.551260672,1.0003305014918122,-62.661842769812324
6.564705792,1.0002130913020415,-63.211610245336416
6.578151424,1.0000858417466334,-63.76014401479673
6.591596544,0.999954514113133,-64.30741032577612
6.605042176,0.999824982557384,-64.85333587802025
6.618487296,0.9997032688337673,-65.39795569058444
6.631932928,0.9995951322796041,-65.94151954177002
6.645378048,0.9995050665188288,-66.48409248159211
6.65882368,0.9994377849401515,-67.02597673197101
6.6722688,0.9993961133022782,-67.56750316221203
6.685714432,0.999381961767861,-68.10891106303383
6.699159552,0.9993963633820516,-68.65059735298658
6.712605184,0.9994384048633356,-69.1929539649018
6.726050304,0.9995066291880936,-69.7362046099867
6.739495936,0.9995976408441374,-70.28074921278012
6.752941056,0.9997076908057834,-70.82680729982656
6.766386688,0.999831459615031,-71.37458992256234
6.779831808,0.9999636786214663,-71.92421615204961
6.79327744,1.0000982712566377,-72.47576369164493
6.80672256,1.0002288426925772,-73.02923063050254
6.820168192,1.0003496784436807,-73.58454577714258
6.833613312,1.000455318131139,-74.14153978453234
6.847058944,1.0005406631396587,-74.70003256066087
6.860504064,1.0006019406708084,-75.25971281218219
6.873949696,1.0006361295256583,-75.8202235713118
6.887394816,1.0006418395659287,-76.3813472720352
6.900840448,1.0006184177921909,-76.94266061805091
6.914285568,1.0005670627934828,-77.50381345116197
6.9277312,1.0004899785360633,-78.06443877442456
6.94117632,1.0003905800763926,-78.62431218746275
6.954621952,1.0002731956919528,-79.18316534885716
6.968067072,1.0001431814785733,-79.74078966683689
6.981512704,1.0000065793433486,-80.29704489823322
6.994957824,0.9998693344976969,-80.85192195720576
7.008403456,0.9997376642447593,-81.40544776019335
7.021848576,0.9996179482570159,-81.95767043583155
7.035294208,0.9995153645510342,-82.50887080331138
7.048739328,0.9994348191739695,-83.05919442546006
7.06218496,0.9993798966015548,-83.60898053615392
7.07563008,0.9993533086113267,-84.15850680886012
7.089075712,0.9993562913396867,-84.708224151861
7.102520832,0.999388804497518,-85.25839466164517
7.115966464,0.9994495541471572,-85.80942304772246
7.129411584,0.9995358313520069,-86.3616836873301
7.142857216,0.9996437672248398,-86.91535401804808
7.156302336,0.9997685516505228,-87.47076926014194
7.169747968,0.9999042961403991,-88.02807791092134
7.183193088,1.0000453055768284,-88.58737895999369
7.19663872,1.0001847854050494,-89.14869791715009
7.21008384,1.0003167425064712,-89.71197105382879
7.223529472,1.0004347710648671,-90.27706802512819
7.236974592,1.0005337238391259,-90.84381874880889
7.250420224,1.000608981885661,-91.41193488559156
7.263865344,1.0006568844812098,-91.98111079534382
7.277310976,1.000675415992597,-92.55101069140417
7.290756096,1.0006635462078064,-93.12123086266183
7.304201728,1.0006216414345726,-93.69145146747312
7.317646848,1.0005514927855856,-94.26130727774388
7.33109248,1.000456262356042,-94.83041386808351
7.3445376,1.0003402535843249,-95.39855943913521
7.357983232,1.0002084049373394,-95.96547105671766
7.371428352,1.0000668648407498,-96.53103408701851
7.384873984,0.9999221345107978,-97.09510515102875
7.398319104,0.9997805377482034,-97.65770285894229
7.411764736,0.9996486611313746,-98.2189101062762
7.425209856,0.9995323901602634,-98.77891840544262
7.438655488,0.9994374300339188,-99.33788233812425
7.452100608,0.9993677315221838,-99.89612740524994
7.46554624,0.9993267862108522,-100.45394576296988
7.47899136,0.9993165784624847,-101.01176149036773
7.492436992,0.9993376411752679,-101.56989671313221
7.505882112,0.9993890851788936,-102.12878517351722
7.519327744,0.9994687343561065,-102.68870616756494
7.532772864,0.9995730330179713,-103.2500960661521
7.546218496,0.9996974052763687,-103.81316127389636
7.559663616,0.9998361257825731,-104.37813106073217
7.573109248,0.999982992541567,-104.9451370323327
7.586554368,1.0001314192085922,-105.51423949998176
7.6,1.0002745370561081,-106.08546254213714
7.613445632,1.0004059795806197,-106.65864288918141
7.626890752,1.0005196695179437,-107.23359394992501
7.640336384,1.000610325260816,-107.81016679057478
7.653781504,1.000673744756176,-108.38795685415023
7.667227136,1.0007071460350419,-108.96663778628626
7.680672256,1.000708721204503,-109.54587479939431
7.694117888,1.0006782975262554,-110.12521825384447
7.707563008,1.0006172299677283,-110.70433932859241
7.72100864,1.0005280190326782,-111.28282159671107
7.73445376,1.0004148139894,-111.86034071686127
7.747899392,1.0002825413158207,-112.43669656410275
7.761344512,1.0001369811972536,-113.01164836420003
7.774790144,0.9999850393993206,-113.5850796323692
7.788235264,0.9998333073922808,-114.15689628602465
7.801680896,0.9996887404410619,-114.7272228503582
7.815126016,0.9995580472569928,-115.29614374216081
7.828571648,0.999447040982739,-115.86386572162382
7.842016768,0.999361048502365,-116.43062437332048
7.8554624,0.9993038091825708,-116.9967992968054
7.86890752,0.9992782697044535,-117.56274081473906
7.882353152,0.9992856311690863,-118.12886111051047
7.895798272,0.999325664412493,-118.6955241310653
7.909243904,0.9993966543077506,-119.26316014532469
7.922689024,0.9994955569594272,-119.83208771947555
7.936134656,0.9996179087868385,-120.40269401282296
7.949579776,0.999758231901508,-120.9751801298551
7.963025408,0.9999103234575208,-121.54973101478795
7.976470528,1.00006729549948,-122.12646536445055
7.98991616,1.0002218751218903,-122.70543883493013
8.00336128,1.0003672699686226,-123.28649628489399
8.016806912,1.0004967746445912,-123.869566215613
8.030252032,1.0006044405558128,-124.45434281565944
8.043697664,1.0006851953683147,-125.04062054982808
8.057142784,1.0007355055236558,-125.62801546990251
8.070588416,1.0007528932893637,-126.21610912776168
8.084033536,1.000736328273298,-126.80449481884025
8.097479168,1.0006865735130501,-127.39280941701597
8.110924288,1.0006056389608549,-127.98062370962127
8.12436992,1.0004971287309818,-128.56757683174655
8.13781504,1.0003658736896446,-129.1533515181907
8.151260672,1.0002176918572476,-129.73771465284352
8.164705792,1.0000591472725233,-130.32050288145064
8.178151424,0.9998975860999633,-130.9016128787201
8.191596544,0.9997401652019455,-131.4810558913899
8.205042176,0.9995940402978464,-132.05891746108668
8.218487296,0.9994659702634633,-132.6353637272256
8.231932928,0.9993617103230772,-133.2106608884256
8.245378048,0.9992862924808343,-133.78513020842294
8.25882368,0.9992430341982307,-134.35910376233034
8.2722688,0.9992341823116596,-134.93305774707733
8.285714432,0.9992602888932667,-135.50737687008396
8.299159552,0.9993201359455354,-136.08249252182245
8.312605184,0.9994112782555968,-136.65879300311178
8.326050304,0.9995296757887042,-137.23663784101083
8.339495936,0.9996700890490149,-137.81636158256373
8.352941056,0.9998262473324971,-138.39817782335786
8.366386688,0.9999909865546097,-138.98221323790838
8.379831808,1.0001570876454777,-139.56856456474856
8.39327744,1.0003169005108987,-140.15721604512567
8.40672256,1.0004631959704504,-140.74803313965225
8.420168192,1.000589282354667,-141.34075036560583
8.433613312,1.0006894169472607,-141.9352237195824
8.447058944,1.0007588678554413,-142.53098729084115
8.460504064,1.0007945188746188,-143.12769867130098
8.473949696,1.00079450755085,-143.72492764050713
8.487394816,1.0007586354406135,-144.32223531707083
8.500840448,1.0006885323197803,-144.91918394213397
8.514285568,1.0005871934556447,-145.51539951100926
8.5277312,1.0004589614059407,-146.11049417857726
8.54117632,1.0003095168286638,-146.70419240959004
8.554621952,1.0001456951109664,-147.2962387973314
8.568067072,0.9999747494367013,-147.88652824691405
8.581512704,0.9998043198563964,-148.47499030414133
8.594958336,0.999642197677542,-149.0616940975316
8.608403456,0.999495808928321,-149.6467628650394
8.621848576,0.999371767485103,-150.23042566268657
8.635293696,0.9992757682663695,-150.8130133109253
8.64873984,0.9992124646470463,-151.3948630126071
8.66218496,0.9991846116951106,-151.97644426565012
8.67563008,0.9991938488993949,-152.55813588863091
8.6890752,0.9992397416132518,-153.14039751122053
8.702521344,0.9993205804592854,-153.7236839177898
8.715966464,0.9994326412258693,-154.3084344689882
8.729411584,0.9995710282901539,-154.89496655941556
8.742856704,0.9997296509473765,-155.48357573898465
8.756302848,0.9999013938240074,-156.07446421241823
8.769747968,1.0000783794196615,-156.66777539541846
8.783193088,1.0002528480714072,-157.26348592046946
8.796638208,1.0004168840403613,-157.86154874763676
8.810084352,1.0005628414224308,-158.46179040196344
8.823529472,1.0006842442097998,-159.06393836324395
8.836974592,1.0007752765461053,-159.6676707578226
8.850419712,1.0008319529520586,-160.27259034475156
8.863865856,1.0008514207770651,-160.87824786253856
8.877310976,1.000832666726616,-161.48422280862633
8.890756096,1.0007763252682862,-162.09002179253054
8.904201216,1.0006848172391494,-162.69518382111121
8.91764736,1.000562089256948,-163.29932972798446
8.93109248,1.0004135153717615,-163.90209360386646
8.9445376,1.0002457738702575,-164.50322382166985
8.95798272,1.0000662977766597,-165.10245560774902
8.971428864,0.9998832773271753,-165.6997562477224
8.984873984,0.9997046903618556,-166.2950978342816
8.998319104,0.9995388738496196,-166.88857684238303
9.011764224,0.9993932419717438,-167.48038138729308
9.025210368,0.9992745670965423,-168.07084192629944
9.038655488,0.9991883419545425,-168.66025462689882
9.052100608,0.9991386372779493,-169.24906771367176
9.065545728,0.9991278163868983,-169.83775128116164
9.078991872,0.9991566217591442,-170.42676079004522
9.092436992,0.9992237744196517,-171.0166182228374
9.105882112,0.9993265843761541,-171.6077286504039
9.119327232,0.999460428819192,-172.20050924882705
9.132773376,0.9996195565306409,-172.79536240160917
9.146218496,0.9997966834193996,-173.39248610036006
9.159663616,0.9999840776477018,-173.99209902931275
9.173108736,1.000173090728221,-174.59426260451147
9.18655488,1.0003554341718002,-175.19893022663385
9.2,1.0005226185178475,-175.80601916964224
9.21344512,1.0006671374082339,-176.41527175379096
9.226891264,1.0007823562229208,-177.02638070927316
9.240336384,1.0008630107177034,-177.63895947711435
9.253781504,1.0009051234270265,-178.25253567823435
9.267226624,1.0009067608871935,-178.86668518686523
9.280672768,1.0008676829459293,-179.48084588816542
9.294117888,1.0007894559679245,179.90542621958784
9.307563008,1.0006751747727343,179.29260331960748
9.321008128,1.0005300730790805,178.68109621947448
9.334454272,1.000360443176928,178.07127708070558
9.347899392,1.0001738891413978,177.4633667630612
9.361344512,0.9999786720699314,176.85753048268091
9.374789632,0.9997835493525783,176.2538653201236
9.388235776,0.9995974794370457,175.65227385087604
9.401680896,0.9994286572666239,175.05263375226122
9.415126016,0.9992851118563559,174.45467369603574
9.428571136,0.9991731810622216,173.8580952386491
9.44201728,0.999098327152799,173.26242042912745
9.4554624,0.9990639823034677,172.66720359956545
9.46890752,0.999071873608926,172.07195567130807
9.48235264,0.9991220030072121,171.4761399621571
9.495798784,0.999212123800693,170.8792839475088
9.509243904,0.9993383866603806,170.28085850712935
9.522689024,0.9994953452025286,169.6804971835744
9.536134144,0.9996760909802894,169.0778520483549
9.549580288,0.9998724446256535,168.47266622084467
9.563025408,1.0000756428189603,167.86482258731414
9.576470528,1.0002766618414831,167.254271161527
9.589915648,1.0004662561465467,166.64108982816134
9.603361792,1.0006359378625709,166.02549635830889
9.616806912,1.00077792087884,165.40773628186864
9.630252032,1.0008855566264676,164.78819329733193
9.643697152,1.0009540741451308,164.16735228119487
9.657143296,1.000979950093242,163.54566600181582
9.670588416,1.0009619788281061,162.92365491115015
9.684033536,1.0009006702701537,162.3018982162068
9.697478656,1.0007985061347868,161.68086632706388
9.7109248,1.0006598529324715,161.0610648588018
9.72436992,1.0004909745034756,160.44289174879452
9.73781504,1.0002991287766645,159.82670249213857
9.75126016,1.0000928696553903,159.2126986023144
9.764706304,0.9998814490557756,158.60102312036184
9.778151424,0.9996743332083918,157.99170397710225
9.791596544,0.9994811262519496,157.38459248704604
9.805041664,0.9993102325985765,156.77953081533917
9.818487808,0.9991697099218874,156.1761804422614
9.831932928,0.9990662157005724,155.57414271922843
9.845378048,0.9990043193330438,154.97291718238992
9.858823168,0.9989873265880495,154.3720058659006
9.872269312,0.9990159552563326,153.77083924617435
9.885714432,0.9990893837780014,153.16886166759483
9.899159552,0.9992044332492738,152.56555617051606
9.912604672,0.9993561647578008,151.96042714247108
9.926050816,0.9995378208120594,151.35305557819564
9.939495936,0.9997415223295546,150.7431469840341
9.952941056,0.9999580473865158,150.13046873779444
9.966386176,1.0001776915859941,149.514910192714
9.97983232,1.0003906242510818,148.89650102853955
9.99327744,1.0005872538666267,148.27537608152105
10.00672256,1.0007585772067091,147.6517722420297
10.02016768,1.0008967996062617,147.0260470939131
10.033613824,1.0009954361759255,146.39865054762657
10.047058944,1.0010497446948092,145.77009648409017
10.060504064,1.0010573341404374,145.14091288007901
10.073949184,1.001017443143773,144.51168854563613
10.087395328,1.0009314404751177,143.88298866389536
10.100840448,1.0008032996848653,143.2553733611915
10.114285568,1.0006381904392607,142.62931054957406
10.127730688,1.0004435495687878,142.00521981741616
10.141176832,1.0002279060264405,141.38341510168965
10.154621952,1.0000007788187841,140.76410726445502
10.168067072,0.9997725277634316,140.14737710335876
10.181512192,0.9995533133446155,139.53321470013464
10.194958336,0.9993529444523644,138.9214154032106
10.208403456,0.9991808806675401,138.31172425301773
10.221848576,0.9990447779848642,137.70374178245385
10.235293696,0.9989512144914535,137.09703783751246
10.24873984,0.9989045256470335,136.49101183589266
10.26218496,0.9989070693424134,135.88510557382264
10.27563008,0.9989590995123466,135.27870495121812
10.2890752,0.9990585160627804,134.67123709556697
10.302521344,0.9992011375587736,134.0621171023316
10.315966464,0.999380613235214,133.45086436971863
10.329411584,0.9995892337702071,132.83706096333245
10.342856704,0.9998177118065997,132.2204333741952
10.356302848,1.0000556259848814,131.60077136809016
10.369747968,1.0002927838257105,130.9779972928964
10.383193088,1.000518103641253,130.3522316569167
10.396638208,1.0007214392988353,129.7236355453045
10.410084352,1.000893644112695,129.09253531464103
10.423529472,1.001026559451838,128.45934405142674
10.436974592,1.001114232149012,127.82462304553295
10.450419712,1.001152223977238,127.1888854411054
10.463865856,1.0011388813657653,126.55278315795414
10.477310976,1.0010741382315471,125.91692866600944
10.490756096,1.0009608151832008,125.2819503045727
10.504201216,1.000803485890041,124.64840990805948
10.51764736,1.0006090567744506,124.01678554511832
10.53109248,1.0003862111777393,123.38747947831371
10.5445376,1.0001446163103223,122.760828212914
10.55798272,0.9998950337237521,122.13699981338108
10.571428864,0.9996487167016147,121.51599659353079
10.584873984,0.9994167915011316,120.8977870224075
10.598319104,0.9992097950448151,120.28209244392669
10.611764224,0.99903721975169,119.66856301614837
10.625210368,0.9989070722295267,119.05674160942147
10.638655488,0.9988255759754793,118.44609473517065
10.652100608,0.9987965776004694,117.83599222559018
10.665545728,0.9988217551540467,117.22579434216654
10.678991872,0.9989003511817529,116.6148050070811
10.692436992,0.9990290785999651,116.00244125862865
10.705882112,0.9992024439419921,115.3880770853863
10.719327232,0.9994130877084282,114.77122021007291
10.732773376,0.9996514258401151,114.15147586291826
10.746218496,0.9999070511335781,113.52852217996926
10.759663616,1.0001685475799234,112.9022762365614
10.773108736,1.000424241549305,112.27268579664604
10.78655488,1.0006623606086358,111.63990509154254
10.8,1.0008722258628742,111.00419884302754
10.81344512,1.001044321769961,110.36595586900464
10.826891264,1.0011703720863905,109.72568657950711
10.840336384,1.0012448085754773,109.08399011739911
10.853781504,1.001263669419,108.44148936090134
10.867226624,1.0012258039059743,107.79891287992318
10.880672768,1.0011326439012487,107.15689835742381
10.894117888,1.0009879270029753,106.51612402967194
10.907563008,1.0007977288267638,105.87715649708615
10.921008128,1.0005704584796105,105.24056371874836
10.934454272,1.0003159493586349,104.60670767144289
10.947899392,1.0000455769750671,103.97585450463565
10.961344512,0.9997713320648628,103.34816639855005
10.974789632,0.9995055757369099,102.7236117294531
10.988235776,0.9992603603555609,102.10204044170348
11.001680896,0.9990468791527057,101.48314598563783
11.015126016,0.9988748598471149,100.86646877478596
11.028571136,0.9987524748443526,100.25148656453406
11.04201728,0.9986855889333731,99.63753647497482
11.0554624,0.9986775942245287,99.0239374925886
11.06890752,0.9987292737648755,98.40996737124703
11.08235264,0.9988385346041341,97.79490067368279
11.095798784,0.9990010934445578,97.17803505461342
11.109243904,0.9992097240150829,96.55879714916915
11.122689024,0.999455434970525,95.93662267687904
11.136134144,0.9997274192097094,95.31114728536964
11.149580288,1.0000135219380646,94.68211988110907
11.163025408,1.0003009919182129,94.04942337188673
11.176470528,1.000576871237658,93.41312336510212
11.189915648,1.0008287093684196,92.77341000762564
11.203361792,1.0010450578225285,92.13065784622638
11.216806912,1.0012158174223467,91.48532231981771
11.230252032,1.0013329381232923,90.8380409305678
11.243697152,1.0013910445872658,90.18946483934462
11.257143296,1.0013869237008715,89.54031164154651
11.270588416,1.0013203991935655,88.89138134511332
11.284033536,1.0011940894672258,88.24341053315302
11.297478656,1.0010129865510218,87.59709181619853
11.3109248,1.0007849145866592,86.95302784150113
11.32436992,1.0005198801024697,86.31176955013427
11.33781504,1.000229462705002,85.67370128584977
11.35126016,0.9999265867366788,85.03907864047761
11.364706304,0.9996247169422603,84.40799135969506
