freq,mag,phase
6.0,1.0001096067289088,85.64370845740092
6.002285568,1.0003818859214357,85.48455091911654
6.004571648,1.0006301679838407,85.32164130346291
6.006857216,1.0008392338353707,85.15544938695113
6.009142784,1.000995819274106,84.9866253168629
6.011428352,1.0010900041493962,84.81599733941576
6.013714432,1.0011159556293985,84.64449082186384
6.016,1.0010718006710353,84.47315443512969
6.018285568,1.000960410465224,84.30296968536116
6.020571648,1.0007886701234103,84.13483927442498
6.022857216,1.0005675935898006,83.96957481967705
6.025142784,1.0003109025237773,83.80781205458464
6.027428352,1.000034950565749,83.6499239145674
6.029714432,0.9997572361975406,83.49605082546273
6.032,0.9994951257200821,83.34616739852318
6.034285568,0.9992655576722099,83.1998386303093
6.036571648,0.9990828064734081,83.0565505126946
6.038857216,0.9989586951390219,82.91553255269021
6.041142784,0.9989009963088035,82.77584981906747
6.043428352,0.998913604802794,82.63652422253972
6.045714432,0.998995469061197,82.4965556910905
6.048,0.9991416434293432,82.35490885792593
6.050285568,0.9993428798665984,82.21076241846018
6.052571648,0.999586271590906,82.06339778342438
6.054857216,0.9998565449921414,81.91234835541349
6.057142784,1.0001364705780302,81.7572853276239
6.059428352,1.0004084629841576,81.59824828158345
6.061714432,1.0006551529870478,81.43546128142361
6.064,1.0008611335064468,81.26936002473875
6.066285568,1.0010131521933872,81.10074353145306
6.068571648,1.0011017741779995,80.9303598753885
6.070857216,1.0011212537107768,80.7592333414278
6.073142784,1.0010702730591052,80.58832397944514
6.075428352,1.0009522073093475,80.41867294952402
6.077714432,1.0007743408866672,80.25115827218629
6.08,1.000547994567176,80.08661110964981
6.082285568,1.0002871789344372,79.92561557656855
6.084571648,1.0000087196065466,79.76853107460953
6.086857216,0.9997299738538266,79.6155256063476
6.089142784,0.9994688005851838,79.46645019105678
6.091428352,0.999241643606576,79.3209453028271
6.093714432,0.9990629103639754,79.17842039887546
6.096,0.9989440035395628,79.0381007220781
6.098285568,0.998892459457731,78.89903850433824
6.100571648,0.998911728452785,78.76020092622312
6.102857216,0.9990004368839578,78.62061346087242
6.105142784,0.999153157339342,78.47929124922032
6.107428352,0.9993600896673384,78.33537774591892
6.109714432,0.9996081965405267,78.1881582431374
6.112,0.9998817345542409,78.03717052520643
6.114285568,1.0001634127855803,77.8821393037413
6.116571648,1.0004353817044516,77.7231205910351
6.118857216,1.0006804037189452,77.56036559395902
6.121142784,1.0008829544317799,77.39436916803703
6.123428352,1.0010303752766805,77.22585578066074
6.125714432,1.001113058624983,77.0556887204045
6.128,1.0011260210994084,76.88482179236566
6.130285568,1.0010683738326827,76.71430670349832
6.132571648,1.0009434893906728,76.54510441811318
6.134857216,1.0007594068422017,76.37817373882736
6.137142784,1.0005277926742906,76.21427569615199
6.139428352,1.000263104752479,76.05395595000506
6.141714432,0.9999820726315478,75.89763688515367
6.144,0.9997026356106516,75.74539483840162
6.146285568,0.9994423513217887,75.59711425959297
6.148571648,0.9992177974866454,75.45234273258912
6.150857216,0.9990432099164716,75.31052220225726
6.153142784,0.9989297277557018,75.17080717062737
6.155428352,0.9988845954842006,75.03225898190875
6.157714432,0.9989106540414644,74.89388934795063
6.16,0.9990063495627679,74.75461890054426
6.162285568,0.9991655212242073,74.61354235186647
6.164571648,0.999378328633973,74.4697529673377
6.166857216,0.9996309997248406,74.32258265641876
6.169142784,0.9999077895556321,74.17158159816474
6.171428352,1.0001910666681741,74.01651464552204
6.173714432,1.0004628823862742,73.857431912043
6.176,1.000705942498258,73.69465815403188
6.178285568,1.0009050560112032,73.5286543906441
6.180571648,1.0010474775622562,73.36018410179523
6.182857216,1.0011242619524479,73.19013676803732
6.185142784,1.0011305700306652,73.0195017510581
6.187428352,1.001065884948823,72.849303581997
6.189714432,1.0009342307323186,72.68053009882357
6.192,1.0007439356355994,72.51409137581194
6.194285568,1.0005069658313765,72.35076819791581
6.196571648,1.0002383703883158,72.19110913691144
6.198857216,0.9999550250138037,72.03548881299241
6.201142784,0.9996749300136397,71.88395435938874
6.203428352,0.9994157887526494,71.73635508368969
6.205714432,0.9991940345179007,71.59228943394967
6.208,0.9990237249229746,71.45108635140679
6.210285568,0.9989158802199299,71.31191372146948
6.212571648,0.9988771315908505,71.17381787070198
6.214857216,0.9989101095386281,71.0357859649298
6.217142784,0.9990127636983179,70.89680609628981
6.219428352,0.9991786071283919,70.7558351443659
6.221714432,0.9993970996242022,70.61210621054606
6.224,0.9996544325012792,70.46492884172588
6.226285568,0.999934256145545,70.3138520906731
6.228571648,1.0002189046197414,70.15868090462989
6.230857216,1.0004903872834587,69.99946869226677
6.233142784,1.000731502122675,69.8365606548592
6.235428352,1.0009268714586135,69.6704805716908
6.237714432,1.0010642180031215,69.50204029062218
6.24,1.0011348587103326,69.33205194061803
6.242285568,1.0011343253719514,69.16154392459858
6.244571648,1.0010625877341945,68.99160873601645
6.246857216,1.0009240913356434,68.82317279151142
6.249142784,1.000727599849169,68.65720880300944
6.251428352,1.0004854725447703,68.49439722296036
6.253714432,1.0002130232244506,68.33534407184561
6.256,0.9999274408409667,68.18033690722183
6.258285568,0.9996468256711694,68.0294482532908
6.260571648,0.9993889723316214,67.88250570539859
6.262857216,0.9991701955445985,67.739019343869
6.265142784,0.999004402078716,67.5983540867589
6.267428352,0.9989021990823994,67.4596761494883
6.269714432,0.9988701310791143,67.32196305708128
6.272,0.9989101504182627,67.18421941953375
6.274285568,0.9990198920032958,67.04536614017665
6.276571648,0.999192294018977,66.90449218207254
6.278857216,0.9994164915735796,66.76073679728458
6.281142784,0.9996783074507175,66.61345369528381
6.283428352,0.9999612400473828,66.46220966787985
6.285714432,1.0002471042676346,66.30686265586034
6.288,1.0005181166428172,66.14746638334537
6.290285568,1.0007568454529565,65.9843704872903
6.292571648,1.0009483650877113,65.8181518851818
6.294857216,1.0010805566993293,65.64960326661607
6.297142784,1.0011449160863402,65.47963434456008
6.299428352,1.0011375192785228,65.3092322002866
6.301714432,1.001058573360287,65.13949405278125
6.304,1.0009133034602637,64.97136614835061
6.306285568,1.0007105421345586,64.80574527109295
6.308571648,1.0004633197681119,64.64340514358355
6.310857216,1.0001871270370952,64.48486427415112
6.313142784,0.9998993718069062,64.33043678745156
6.315428352,0.999618455717488,64.1801528319111
6.317714432,0.999361991359893,64.03376544435702
6.32,0.9991464453845463,63.89080566553859
6.322285568,0.9989853517080793,63.75065492117192
6.324571648,0.9988889542377853,63.61232555285567
6.326857216,0.9988635791572436,63.47493713799554
6.329142784,0.9989108455150794,63.3373900457708
6.331428352,0.9990276626427729,63.19865639757144
6.333714432,0.9992067125546953,63.0577592753566
6.336,0.9994366900999967,62.91390022360619
6.338285568,0.9997030067280684,62.76644158503468
6.340571648,0.9999887355299786,62.614951846208704
6.342857216,1.0002757575707923,62.459330978768406
6.345142784,1.0005461237999391,62.299658800946325
6.347428352,1.000782442124062,62.13631526872374
6.349714432,1.0009699992598031,61.96988854345975
6.352,1.0010967462249578,61.80119356297409
6.354285568,1.0011547028516083,61.631147123015715
6.356571648,1.00114023064858,61.46081813490607
6.358857216,1.0010541980146923,61.291154628462415
6.361142784,1.000901879192472,61.12327055074233
6.363428352,1.0006929488002896,60.95798294859356
6.365714432,1.0004405622203474,60.79606533619008
6.368,1.0001606931498106,60.63798570556981
6.370285568,0.9998710347718287,60.48404837785624
6.372571648,0.9995898654622977,60.334257742786804
6.374857216,0.9993350322706225,60.18839208858594
6.377142784,0.999122786137328,60.04592466209888
6.379428352,0.9989664798671124,59.90613634927704
6.381714432,0.998876166966639,59.76816993033047
6.384,0.9988576238920556,59.63097045028718
6.386285568,0.9989120221001608,59.493554111409175
6.388571648,0.9990360490011154,59.3548315787781
6.390857216,0.99922164947397,59.21384655081544
6.393142784,0.999457270727343,59.06980438637049
6.395428352,0.9997279456228318,58.92208538682733
6.397714432,1.0000164601238957,58.77031946306152
6.4,1.0003046253054726,58.61433783704654
6.402285568,1.000574097428701,58.45430580729474
6.404571648,1.0008077854908017,58.29064174808463
6.406857216,1.0009911885441958,58.123926649774155
6.409142784,1.001112403151234,57.95501648670455
6.411428352,1.001163864143287,57.78485995020419
6.413714432,1.0011422591989385,57.614488474927626
6.416,1.0010489180621522,57.444926443694875
6.418285568,1.0008897218165986,57.27721685511826
6.420571648,1.0006745831846509,57.11219533156104
6.422857216,1.0004172427097977,56.95058571539042
6.425142784,1.0001338873681667,56.792921392891444
6.427428352,0.9998422999659983,56.63942666177864
6.429714432,0.9995611155294128,56.490100466542614
6.432,0.9993080397545991,56.34465822207082
6.434285568,0.9990992482186717,56.20258688842334
6.436571648,0.9989479128472734,56.06312571226274
6.438857216,0.9988637879442553,55.925394477623136
6.441142784,0.998852175629747,55.78837084344229
6.443428352,0.9989138678984755,55.6509797200171
6.445714432,0.9990450506033743,55.51219034612456
6.448,0.9992373542416514,55.371045064043535
6.450285568,0.9994785539636797,55.226759631905225
6.452571648,0.9997535003456567,55.07871301797332
6.454857216,1.0000446344549372,54.92652510889503
6.457142784,1.0003336414118864,54.770122886294644
6.459428352,1.0006021462187473,54.6096944753768
6.461714432,1.0008332072565258,54.44562176842794
6.464,1.0010121247199324,54.27855828125981
6.466285568,1.0011276778743334,54.10939647160168
6.468571648,1.0011725097079167,53.939032213293515
6.470857216,1.0011437559986736,53.76857287249067
6.473142784,1.0010430851470538,53.59902390307183
6.475428352,1.0008769401895377,53.43142582149691
6.477714432,1.000655725351893,53.26660719482745
6.48,1.000393436913461,53.105272090547224
6.482285568,1.0001065498668318,52.9479316255016
6.484571648,0.9998132460347868,52.794826485931516
6.486857216,0.9995322015163184,52.6458883379663
6.489142784,0.9992811451650901,52.50080162556807
6.491428352,0.999075980489994,52.3590599598741
6.493714432,0.9989298588479847,52.2198736943405
6.496,0.9988520198148334,52.08231276393766
6.498285568,0.9988474993031172,51.94535511559327
6.500571648,0.9989165393485311,51.80793965197165
6.502857216,0.9990548497109579,51.66898384343225
6.505142784,0.9992537216467678,51.527604350854304
6.507428352,0.9995004634128515,51.38294336109025
6.509714432,0.9997794991228452,51.23449664082685
6.512,1.0000732489589506,51.081825541603166
6.514285568,1.000362988663856,50.9249646123044
6.516571648,1.0006302582762727,50.76403205644155
6.518857216,1.0008584529443112,50.599503657548595
6.521142784,1.0010329224914263,50.43204990409662
6.523428352,1.0011426848338736,50.26253275113014
6.525714432,1.0011807149156389,50.091931965952405
6.528,1.0011445846509053,49.92129242977538
6.530285568,1.0010365974181674,49.751718436131924
6.532571648,1.0008635145303966,49.584132894938584
6.534857216,1.0006362519992413,49.41945747148682
6.537142784,1.0003690260673388,49.25837560133304
6.539428352,1.000078904250066,49.10132731673424
6.541714432,0.9997840547501122,48.94851069376729
6.544,0.9995031690811196,48.799876859287444
6.546285568,0.9992542709707171,48.65510721022971
6.548571648,0.9990529031696649,48.513599114466345
6.550857216,0.9989120365807376,48.37460681174085
6.553142784,0.9988405901295071,48.237125662623974
6.555428352,0.9988431816227523,48.10015440199659
6.557714432,0.9989196555007301,47.9626409071059
6.56,0.9990651697224763,47.823469727428304
6.562285568,0.9992706463346522,47.68173175205735
6.564571648,0.9995229159096715,47.536684685582756
6.566857216,0.9998060617000599,47.38772487960589
6.569142784,1.0001020964593756,47.234547520439
6.571428352,1.0003923894322586,47.07710222108055
6.573714432,1.0006584981711435,46.91560171379003
6.576,1.0008836463054884,46.75057128420408
6.578285568,1.0010533676404934,46.58261160674676
6.580571648,1.0011572506007724,46.412694688940746
6.582857216,1.001188385404465,46.24176016667728
6.585142784,1.0011449960737646,46.07093187479123
6.587428352,1.0010296324570738,45.90121976043176
6.589714432,1.0008496081695026,45.7336471205205
6.592,1.0006162947576547,45.56906261825359
6.594285568,1.0003443264981997,45.40811036458502
6.596571648,1.0000509039794134,45.2512759048744
6.598857216,0.9997545708778919,45.09872830836079
6.601142784,0.9994741548690238,44.95034174583981
6.603428352,0.9992274389625092,44.80579816102972
6.605714432,0.9990301612487681,44.66446196160793
6.608,0.9988946635904197,44.52554882540902
6.610285568,0.998829751894293,44.38810858239038
6.612571648,0.9988394947469443,44.251063222754766
6.614857216,0.998923425116197,44.11332772535535
6.617142784,0.9990761873223538,43.97386532157561
6.619428352,0.9992881895622515,43.83172897216754
6.621714432,0.9995458367526587,43.68618222645559
6.624,0.9998329411397503,43.53665952532254
6.626285568,1.0001312709973507,43.382868462784614
6.628571648,1.000422007797004,43.22478983441239
6.630857216,1.000686692270171,43.06267791912565
6.633142784,1.000908573261199,42.89701675705176
6.635428352,1.0010735545520937,42.72852307292406
6.637714432,1.0011712770928,42.55813405982949
6.64,1.0011955294093768,42.38683812217695
6.642285568,1.0011446971303763,42.21572381951685
6.644571648,1.001021985039663,42.045847701590034
6.646857216,1.0008350433251345,41.87819938479677
6.649142784,1.0005957708140194,41.713630239818876
6.651428352,1.0003190431117666,41.55278240764089
6.653714432,1.0000225546045924,41.396097327327965
6.656,0.9997249433131459,41.24369617327612
6.658285568,0.9994451047420521,41.09549023024246
6.660571648,0.9992008437739299,40.9511137614865
6.662857216,0.9990074639059985,40.80988209410971
6.665142784,0.9988775972216162,40.67103060039371
6.667428352,0.9988192869245044,40.53351496942227
6.669714432,0.9988363646712842,40.396320287346875
6.672,0.9989278426911192,40.258317658241005
6.674285568,0.9990877528095699,40.11847180031068
6.676571648,0.9993062004312292,39.97585807973865
6.678857216,0.9995692027832754,39.82972470181365
6.681142784,0.9998602127966707,39.67954872054488
6.683428352,1.0001606885292844,39.52507071375242
6.685714432,1.0004516752295445,39.36629898681666
6.688,1.0007147231338689,39.20347977676528
6.690285568,1.0009332643925606,39.037144002327786
6.692571648,1.0010933701301024,38.86806947241559
6.694857216,1.0011849244252935,38.69712081658519
6.697142784,1.0012021371714739,38.52540702317229
6.699428352,1.0011438990029096,38.353931640401946
6.701714432,1.0010137922762643,38.18382833240934
6.704,1.0008199730852634,38.016049176064
6.706285568,1.000574669366919,37.85142827322392
6.708571648,1.000293391446687,37.69061834165079
6.710857216,0.9999939072258643,37.53400697606169
6.713142784,0.9996951573976042,37.381720875416256
6.715428352,0.9994160603851187,37.23365478298466
6.717714432,0.9991742455189018,37.089330500902506
6.72,0.9989852211341612,36.94816089944392
6.722285568,0.9988609306825307,36.809250239145044
6.724571648,0.998809322296752,36.67161709525386
6.726857216,0.9988337572703869,36.53416238029898
6.729142784,0.9989326898421573,36.39581303147847
6.731428352,0.9990997976986928,36.25550096771729
6.733714432,0.9993246737099754,36.11233040365636
6.736,0.9995929751915402,35.96557181916569
6.738285568,0.999887664057043,35.81467789886176
6.740571648,1.0001901765459869,35.65944139907706
6.742857216,1.0004812765827016,35.49987926787724
6.745142784,1.0007426473328747,35.336281256217674
6.747428352,1.0009576846381734,35.16922058054198
6.749714432,1.0011127657349785,34.999450599936445
6.752,1.0011981562330001,34.82791454851049
6.754285568,1.0012082364408736,34.65570059638498
6.756571648,1.001142497562053,34.48383143004971
6.758857216,1.0010049768123896,34.313432618651525
6.761142784,1.000804342364683,34.14544869247068
6.763428352,1.0005532253312779,33.98072062228934
6.765714432,1.0002675068212667,33.81989463795236
6.768,0.9999651197956281,33.663291796765
6.770285568,0.9996653651650221,33.511064795483286
6.772571648,0.9993870736878327,33.36300308905005
6.774857216,0.9991480005032025,33.21872052389592
6.777142784,0.9989632869698283,33.07749627689821
6.779428352,0.9988447704992313,32.938475698475436
6.781714432,0.998799925077785,32.80063479110327
6.784,0.9988316867402575,32.66285420592719
6.786285568,0.9989381638114772,32.524086230437895
6.788571648,0.9991124662589418,32.383248575125215
6.790857216,0.9993436812914697,32.239437167611335
6.793142784,0.9996170506493466,32.09193602951426
6.795428352,0.9999154832902313,31.94025944557359
6.797714432,1.0002198348543712,31.784185999944178
6.8,1.0005110197399514,31.623775454571078
6.802285568,1.000770552312575,31.459346155986093
6.804571648,1.0009818993344186,31.291476907479314
6.806857216,1.0011318766442723,31.120969030343154
6.809142784,1.0012107572763764,30.948779400951484
6.811428352,1.0012138304056792,30.775984861149205
6.813714432,1.0011405406711238,30.6036606153886
6.816,1.0009956601027805,30.432904640962622
6.818285568,1.0007883497764412,30.26467683011646
6.820571648,1.000531357690001,30.099787811066165
6.822857216,1.0002413132012742,29.938844537003177
6.825142784,0.9999362053262738,29.782193941585255
6.827428352,0.999635488943718,29.629933660172398
6.829714432,0.9993581920608784,29.48185956156732
6.832,0.9991220102350142,29.3375112949075
6.834285568,0.9989417914809522,29.196177587376965
6.836571648,0.9988291279372493,29.056959130533436
6.838857216,0.9987911132299078,28.91884584552864
6.841142784,0.9988303215200903,28.780674519222476
6.843428352,0.9989442225516086,28.641396980809624
6.845714432,0.9991256777940203,28.499938578252404
6.848,0.9993631389313821,28.35541691001608
6.850285568,0.9996417060115315,28.207110913634395
6.852571648,0.9999436032904129,28.054570338930926
6.854857216,1.000249743462936,27.897598248481902
6.857142784,1.0005407641501154,27.736250582763535
6.859428352,1.0007981652133018,27.57092201795476
6.861714432,1.001005808625773,27.402202265278895
6.864,1.0011505152631914,27.23088311344877
6.866285568,1.0012231121017188,27.057972459849672
6.868571648,1.0012189251753514,26.884534718842
6.870857216,1.0011381472141145,26.7117091673032
6.873142784,1.0009859388035895,26.54053048792662
6.875428352,1.0007718308909492,26.371968786627907
6.877714432,1.0005092648926706,26.2068466154971
6.88,1.0002147743101681,26.045748637794393
6.882285568,0.999907129064639,25.88897711322575
6.884571648,0.9996056842829061,25.736630659888924
6.886857216,0.9993295034914564,25.588452886364387
6.889142784,0.9990962440948196,25.443973267225697
6.891428352,0.9989205719334083,25.302443556374673
6.893714432,0.9988138114872251,25.16297072256484
6.896,0.9987827772866323,25.02447306523945
6.898285568,0.9988294158331645,24.88584823898131
6.900571648,0.9989507754773748,24.745982798786038
6.902857216,0.9991393189566307,24.60383732602897
6.905142784,0.9993830763232162,24.458522025970947
6.907428352,0.9996664679271174,24.309359704934604
6.909714432,0.999971813275356,24.15588021977712
6.912,1.0002795018283925,23.997904131077593
6.914285568,1.0005702542410562,23.835596695203144
6.916571648,1.0008256394155914,23.669282090304716
6.918857216,1.0010294198296825,23.499626223772133
6.921142784,1.001168782678164,23.32744350214877
6.923428352,1.001234863212251,23.153741396095864
6.925714432,1.0012234665318334,22.979646058003453
6.928,1.0011351550576508,22.806195161186068
6.930285568,1.0009756095636617,22.634540003684847
6.932571648,1.0007548018011438,22.465598698845074
6.934857216,1.0004866916000446,22.300170316721868
6.937142784,1.0001880280381328,22.13884540223903
6.939428352,0.9998778960648222,21.981916428832424
6.941714432,0.9995757364065446,21.82938717717274
6.944,0.9993008269258191,21.681044027748797
6.946285568,0.9990706452607951,21.536367953041605
6.948571648,0.9988995998692103,21.39457139754438
