freq,mag,phase
6.0,1.0000897960054091,-83.01597631227686
6.004932096,1.000155168360516,-83.25984803789856
6.009864192,1.0002124860139112,-83.50459694791785
6.0147968,1.0002574260458703,-83.75012153076783
6.019728896,1.0002870791430565,-83.99625615098857
6.024660992,1.0002999958706669,-84.24269466256574
6.029593088,1.0002952012430135,-84.48918621449413
6.034525184,1.0002728321001637,-84.735634678123
6.03945728,1.000234409442363,-84.98164501107159
6.044389888,1.0001820883225003,-85.22708246604209
6.049321984,1.0001187716426803,-85.47175755685943
6.05425408,1.0000484652384558,-85.71550418878931
6.059186176,0.9999750966569058,-85.95832026955787
6.064118272,0.9999029386851306,-86.20015872402298
6.069050368,0.9998365784201672,-86.44105110455371
6.073982976,0.999779629603323,-86.68111101768649
6.078915072,0.9997355442261436,-86.92053006016582
6.083847168,0.9997070552745525,-87.1594966537074
6.088779264,0.9996958157398524,-87.39819962392863
6.09371136,0.9997024685624814,-87.63689868634529
6.098643456,0.9997266529837909,-87.8758638565892
6.103576064,0.9997670371090279,-88.1153269305313
6.10850816,0.9998212657372164,-88.35544052911018
6.113440256,0.9998859069854924,-88.5964763236099
6.118372352,0.9999576897286054,-88.83848589477911
6.123304448,1.0000318509789075,-89.0815904137185
6.128236544,1.0001042960220656,-89.32574737389507
6.133169152,1.0001708553377389,-89.5709471861158
6.138101248,1.0002271879755726,-89.81701348241805
6.143033344,1.0002703920552247,-90.06386693749724
6.14796544,1.0002976381346431,-90.31119717903395
6.152897536,1.000307220563438,-90.55885267150593
6.157829632,1.0002989122310004,-90.80658734531578
6.16276224,1.0002727467802635,-91.05409203677935
6.167694336,1.000230555913121,-91.30117208412788
6.172626432,1.0001746293924068,-91.54759346018426
6.177558528,1.0001081964213225,-91.79322490185109
6.182490624,1.000035455916872,-92.03792623469192
6.18742272,0.9999603808976176,-92.28163268242024
6.192355328,0.9998873887312528,-92.5243355005753
6.197287424,0.9998211435076264,-92.7661046406773
6.20221952,0.9997651668677071,-93.00703827100585
6.207151616,0.9997230640871332,-93.24734578967666
6.212083712,0.9996970439633427,-93.48720890872725
6.217015808,0.999688942317667,-93.72685159964323
6.221948416,0.9996992481439656,-93.96656224096463
6.226880512,0.9997272734257212,-94.206529552091
6.231812608,0.9997714774520708,-94.44710966896962
6.236744704,0.9998290836845423,-94.68839096369858
6.2416768,0.9998970912800051,-94.93061484294185
6.246608896,0.9999709517173029,-95.17390880868183
6.251541504,1.0000469516326371,-95.41819809645224
6.2564736,1.0001201590824376,-95.66365397844017
6.261405696,1.000186366816655,-95.91009507557104
6.266337792,1.0002417626630975,-96.1574235883626
6.271269888,1.0002828953637641,-96.40553071096224
6.276201984,1.0003074619815344,-96.65406661255534
6.281134592,1.0003138055835084,-96.9028700050739
6.286066688,1.0003017647702312,-97.15171947571478
6.290998784,1.0002718735309704,-97.40028053473154
6.29593088,1.000225881714166,-97.64834490818073
6.300862976,1.000166492593407,-97.89575040537207
6.305795072,1.0000971244465178,-98.14227701910558
6.31072768,1.0000218473707398,-98.38781679650009
6.315659776,0.9999451868857344,-98.6323509575773
6.320591872,0.999871638326219,-98.87586934507796
6.325523968,0.9998055419768762,-99.11843223376107
6.330456064,0.9997507199801398,-99.36018205166982
6.33538816,0.9997106138284965,-99.60131877633098
6.340320768,0.9996874202398888,-99.84204769525984
6.345252864,0.999682706364299,-100.08258335219156
6.35018496,0.9996965902919669,-100.32325352398698
6.355117056,0.999728474595824,-100.56424769718963
6.360049152,0.9997764676391729,-100.80586021900747
6.36498176,0.9998376218255394,-101.04830080301699
6.369913856,0.9999085138004647,-101.29162706049053
6.374845952,0.9999849383928631,-101.53606790801608
6.379778048,1.000062372385827,-101.78161593052114
6.384710144,1.0001361723038964,-102.02826885195984
6.38964224,1.0002020867213186,-102.27593949692428
6.394574848,1.000256245749,-102.52450843125396
6.399506944,1.0002953576091274,-102.77369125857986
6.40443904,1.000317060182484,-103.02341349000783
6.409371136,1.0003201315698367,-103.2733357185896
6.414303232,1.0003043974894994,-103.5232339083641
6.419235328,1.0002705388927777,-103.7727850973056
6.424167936,1.0002207726108658,-104.02180141636362
6.429100032,1.000157835492536,-104.27005692641677
6.434032128,1.0000855294772317,-104.51742413208652
6.438964224,1.0000080582168365,-104.7637737683864
6.44389632,0.9999298878690166,-105.00907634682048
6.448828416,0.9998558299108029,-105.25330737241447
6.453761024,0.9997900078376768,-105.49662914407104
6.45869312,0.9997366061216705,-105.73913937613341
6.463625216,0.9996984405828163,-105.98106125577284
6.468557312,0.9996782286960526,-106.22259487133283
6.473489408,0.9996768509219536,-106.46400365376995
6.478421504,0.9996946359507174,-106.70554852459263
6.483354112,0.9997303684219304,-106.9475130196209
6.488286208,0.9997820265982988,-107.19009747501511
6.493218304,0.9998467391060014,-107.43355453152634
6.4981504,0.9999206740261445,-107.67802049407881
6.503082496,0.9999992749689782,-107.92359937255205
6.508014592,1.0000780366563111,-108.17029332463551
6.5129472,1.0001525126954165,-108.41808639066687
6.517879296,1.0002178999935412,-108.66690732390141
6.522811392,1.0002706971420712,-108.91658448250895
6.527743488,1.0003074894897839,-109.16698331194661
6.532675584,1.000326352632962,-109.41773921545978
6.53760768,1.000325975615532,-109.66871773143068
6.542540288,1.0003064145355327,-109.9195277419439
6.547472384,1.0002686663538596,-110.17002305026303
6.55240448,1.0002150821711826,-110.41990992576147
6.557336576,1.0001487545461718,-110.66897997904397
6.562268672,1.000073441985779,-110.91710243421683
6.567200768,0.999993758892112,-111.16419961867504
6.572133376,0.9999142750518112,-111.41017675859604
6.577065472,0.9998396239995037,-111.65510506525948
6.581997568,0.9997744522226567,-111.89912311881163
6.586929664,0.9997224581609233,-112.14231609746203
6.59186176,0.9996867542525516,-112.38493149101339
6.596793856,0.9996693652107707,-112.62721377168884
6.601726464,0.9996715510714825,-112.86941458112909
6.60665856,0.9996930499160706,-113.11183082228271
6.611590656,0.9997327733862249,-113.35467249405977
6.616522752,0.9997883467596526,-113.59821235929945
6.621454848,0.9998564880382946,-113.84266460128
6.626386944,0.9999332155605821,-114.0881651588142
6.631319552,1.0000140275067044,-114.33479912469329
6.636251648,1.000094120911267,-114.58258208377147
6.641183744,1.0001688314806676,-114.8314858388656
6.64611584,1.000233750460942,-115.08140643778133
6.651047936,1.0002849908135578,-115.33219177586345
6.655980032,1.0003195515469694,-115.58356040690298
6.66091264,1.0003352791987141,-115.835344732835
6.665844736,1.0003313556331335,-116.08727019233422
6.670776832,1.0003078649584463,-116.33902365700914
6.675708928,1.000266179140147,-116.59035141889227
6.680641024,1.0002087124783776,-116.84103463920287
6.68557312,1.0001389059568517,-117.09086966099505
6.690505728,1.0000608359542553,-117.33967462617686
6.695437824,0.9999789329190643,-117.58738214701829
6.70036992,0.9998982446040989,-117.83401877231927
6.705302016,0.9998233850593332,-118.07957300198068
6.710234112,0.9997589120257941,-118.32415259913391
6.715166208,0.9997083489555811,-118.56801277082081
6.720098816,0.9996750731400569,-118.81125441689396
6.725030912,0.9996609098252377,-119.05422682448483
6.729963008,0.9996666828127682,-119.297150504142
6.734895104,0.9996921092207974,-119.54033430226464
6.7398272,0.9997359193492912,-119.78402037088979
6.744759808,0.999795233864775,-120.02847623306413
6.749691904,0.999866834153119,-120.2738359455737
6.754624,0.9999463483431285,-120.52030879774587
6.759556096,1.0000291621073505,-120.76795192329817
6.764488192,1.0001105465333688,-121.01676795644985
6.769420288,1.0001854711181712,-121.2666830637205
6.774352896,1.0002496133959504,-121.51765106331479
6.779284992,1.000299246868048,-121.76940789076974
6.784217088,1.0003311830813943,-122.02180819295118
6.789149184,1.0003437762584835,-122.27451526380067
6.79408128,1.000336140844076,-122.52731644323732
6.799013376,1.0003087867125136,-122.77990949704336
6.803945984,1.000263122431277,-123.03197905045731
6.80887808,1.0002018605984513,-123.28335555048578
6.813810176,1.0001286186496559,-123.53386292041263
6.818742272,1.0000477006493635,-123.78325584906788
6.823674368,0.9999638451792131,-124.03157797252803
6.828606464,0.9998819338471133,-124.27876379128155
6.833539072,0.9998069552655368,-124.52484979724076
6.838471168,0.9997432037916769,-124.76998290764746
6.843403264,0.9996945213710179,-125.01438416679075
6.84833536,0.9996637681673226,-125.25822131828932
6.853267456,0.9996528218752091,-125.50179390236906
6.858199552,0.9996622653883027,-125.74540625222981
6.86313216,0.9996918940422073,-125.9892635997547
6.868064256,0.9997395302466626,-126.23374152419761
6.872996352,0.9998027325700946,-126.47898724532214
6.877928448,0.9998776346858576,-126.72526010021438
6.882860544,0.9999599555561763,-126.97262649368083
6.88779264,1.0000448800814041,-127.2211941776879
6.892725248,1.0001271801647038,-127.47097493482381
6.897657344,1.0002022494198135,-127.72188089191101
6.90258944,1.0002655276143617,-127.97379546150202
6.907521536,1.0003132901649612,-128.22649368565104
6.912453632,1.000342718629221,-128.47977558226145
6.917385728,1.000351971512292,-128.73334390462978
6.922318336,1.0003405691244598,-128.986941322973
6.927250432,1.0003090320831491,-129.24027362147046
6.932182528,1.000259359830794,-129.49304257243293
6.937114624,1.0001943019864887,-129.74508074907635
6.94204672,1.0001176783373782,-129.99611919843167
6.946978816,1.0000340199452502,-130.24606557981292
6.951911424,0.9999482669514975,-130.4948732513275
6.95684352,0.9998653716147436,-130.74250271065247
6.961775616,0.9997903287818479,-130.98903796036194
6.966707712,0.9997274766510508,-131.23463773445113
6.971639808,0.999680740154438,-131.47949357096778
6.976571904,0.9996527045039508,-131.72388293511412
6.981504512,0.9996450825606289,-131.96801979899752
6.986436608,0.999658492453266,-132.21219060103508
6.991368704,0.9996919177729134,-132.45672510540075
6.9963008,0.9997437721273001,-132.70188717574723
7.001232896,0.9998107361033007,-132.9478755832623
7.006164992,0.999889147882711,-133.1949374806211
7.0110976,0.9999741885471611,-133.4431694542929
7.016029696,1.0000609330103312,-133.69259543363654
7.020961792,1.0001442048236149,-133.94326823495862
7.025893888,1.0002192249684592,-134.19507245314853
7.030825984,1.0002814825296706,-134.44785202140363
7.03575808,1.000327264421954,-134.70142213438686
7.040690688,1.000353896521088,-134.9555103028546
7.045622784,1.0003598001435405,-135.20987084665774
7.05055488,1.0003444453400212,-135.4641844521819
7.055486976,1.0003088914154892,-135.71815530725996
7.060419072,1.0002550560597663,-135.97157245802222
7.065351168,1.0001861786398145,-136.22410525762348
7.070283776,1.000106216230712,-136.47565265029183
7.075215872,1.0000198596714405,-136.7260428447575
7.080147968,0.9999322521983987,-136.97523828660525
7.085080064,0.999848450047473,-137.22327122361904
7.09001216,0.9997735380123556,-137.47019290465667
7.094944768,0.9997118952711489,-137.71619654289512
7.099876864,0.9996671141679375,-137.96146869573843
7.10480896,0.9996419004618722,-138.20626316854006
7.109741056,0.9996378198234841,-138.45083774099191
7.114673152,0.9996550934907606,-138.69557252168494
7.119605248,0.9996927895892062,-138.94067074338454
7.124537856,0.9997487370714737,-139.18647516148934
7.129469952,0.9998195492817741,-139.4331668412758
7.134402048,0.9999012270671844,-139.68096477360356
7.139334144,0.9999888761376251,-139.9299293773872
7.14426624,1.0000773402485068,-140.1801880768571
7.149198336,1.0001615406502662,-140.4316404908878
7.154130944,1.0002363605230957,-140.68423527257374
7.15906304,1.0002974043684316,-140.93784197063408
7.163995136,1.0003410437465285,-141.19217927488546
7.168927232,1.000364773079258,-141.44700328456378
7.173859328,1.0003670875242463,-141.70206071742945
7.178791424,1.0003478538723622,-141.95700466583665
7.183724032,1.000308052918773,-142.2115427649264
7.188656128,1.0002501172259475,-142.46546249119126
7.193588224,1.0001774218821764,-142.71847263018833
7.19852032,1.000094066632588,-142.9704034412382
7.203452416,1.0000051490947581,-143.22115995658098
7.208384512,0.9999157763494618,-143.47067329828576
7.21331712,0.9998312387001262,-143.71900924661958
7.218249216,0.9997565622868432,-143.96623324499336
7.223181312,0.9996960442774805,-144.21251790082198
7.228113408,0.9996534599879693,-144.45811298152822
7.233045504,0.9996313579910964,-144.7032577136123
7.2379776,0.9996308255508258,-144.94826065729976
7.242910208,0.9996521844951628,-145.1934283162825
7.247842304,0.9996939904358539,-145.43903487371344
7.2527744,0.999754151065011,-145.6853809747583
7.257706496,0.9998288412327403,-145.9326861102774
7.262638592,0.9999138266486015,-146.18113458181264
7.267570688,1.0000040514404522,-146.43081172667533
7.272503296,1.000094220622571,-146.68178155833237
7.277435392,1.0001791024574958,-146.93398468161465
7.282367488,1.0002535676695377,-147.18731877309423
7.287299584,1.0003133305209129,-147.44163386727593
7.29223168,1.000354770235168,-147.69666902628975
7.297163776,1.0003753969593498,-147.95214632123134
7.302096384,1.0003740728595016,-148.20779350112926
7.30702848,1.0003506844297079,-148.46329454244372
7.311960576,1.0003066326185672,-148.7183258530598
7.316892672,1.0002445827704154,-148.97265725067237
7.321824768,1.0001679825194987,-149.22601334361582
7.326756864,1.0000813685388144,-149.47826968663315
7.331689472,0.9999898902547161,-149.7292872072192
7.336621568,0.999898849050193,-149.9790659556764
7.341553664,0.9998136650714539,-150.22758867122002
7.34648576,0.9997393219328639,-150.4750011032758
7.351417856,0.9996803132453819,-150.7215266921274
7.356349952,0.999640060538695,-150.96734033505464
7.36128256,0.9996209792186816,-151.21278092730438
7.366214656,0.9996242490619006,-151.45808296553028
7.371146752,0.9996497979742989,-151.70361350617955
7.376078848,0.9996959928576071,-151.94966528129936
7.381010944,0.999760269812233,-152.19648237638557
7.38594304,0.9998388036261793,-152.44432526999026
7.390875648,0.9999270254478562,-152.69333380035602
7.395807744,1.0000197970748064,-152.94366120526564
7.40073984,1.0001116033473632,-153.19527948022906
7.405671936,1.000197029019658,-153.4481235708425
7.410604032,1.0002711071774295,-153.7021416175482
7.415536128,1.0003293163813556,-153.9570852542577
7.420468736,1.0003683660672271,-154.21272068826653
7.425400832,1.000385783983046,-154.46877405371993
7.430332928,1.0003806225041931,-154.72493851773896
7.435265024,1.0003530236159928,-154.98088355757986
7.44019712,1.0003047051322005,-155.23633044416852
7.445129216,1.0002383662539445,-155.49096275765467
7.450061824,1.0001579046045677,-155.74462011527012
7.45499392,1.0000680509423334,-155.9970577217224
7.459926016,0.9999741044451277,-156.2482640002608
7.464858112,0.9998815507292006,-156.4981539710045
7.469790208,0.9997958429977363,-156.74682828678172
7.474722816,0.9997221135795575,-156.99437722440902
7.479654912,0.9996646711912758,-157.24103770470268
7.484587008,0.9996268667038322,-157.48699757027714
7.489519104,0.9996110450248448,-157.73260836539552
7.4944512,0.9996182451392333,-157.97816444725515
7.499383296,0.9996480025937652,-158.2239943627619
7.504315904,0.9996985557282836,-158.47038808484538
7.509248,0.9997671244708075,-158.7176308217169
7.514180096,0.9998494573653556,-158.9659193243425
7.519112192,0.9999409645932738,-159.2154476142255
7.524044288,1.0000360882861394,-159.4662991717084
7.528976384,1.0001294074034377,-159.71848715364504
7.533908992,1.000215294265954,-159.97194412337458
7.538841088,1.0002887683616803,-160.22652253163312
7.543773184,1.0003453477902118,-160.48200247996556
7.54870528,1.000381778350963,-160.73818403811805
7.553637376,1.000395846263577,-160.9946976611772
7.558569472,1.0003866885318133,-161.25128952792056
7.56350208,1.0003548035615586,-161.5075994331372
7.568434176,1.0003020012643256,-161.76333489139495
7.573366272,1.0002313657600197,-162.01821429875378
7.578298368,1.0001471293285522,-162.27205601776362
7.583230464,1.00005399800845,-162.52462259859766
7.58816256,0.9999575905527447,-162.77589289462162
7.593095168,0.9998636284323573,-163.02583111102348
7.598027264,0.9997775165639046,-163.2745133495047
7.60295936,0.9997044310173687,-163.522107485432
7.607891456,0.9996486750403781,-163.76877503857733
7.612823552,0.9996135440182277,-164.0148478103485
7.617755648,0.999601251121138,-164.2605802297859
7.622688256,0.9996124896998764,-164.50627360072508
7.627620352,0.999646615903343,-164.7523212471026
7.632552448,0.9997016654502067,-164.9989764198586
7.637484544,0.9997744358086222,-165.24656618114662
7.64241664,0.999860714266494,-165.49525774167142
7.647348736,0.9999554136708815,-165.7452098239106
7.652281344,1.000052991376384,-165.9965191527418
7.65721344,1.0001476388539918,-166.24918548294812
7.662145536,1.000233825425851,-166.50313412815962
7.667077632,1.0003065548456012,-166.7582055531025
7.672009728,1.0003613084599134,-167.0141754908242
7.676941824,1.00039498368832,-167.27077295452654
7.681874432,1.000405531660165,-167.52768801525437
7.686806528,1.0003923058213722,-167.78463512404218
7.691738624,1.0003559786127179,-168.04121135142128
7.69667072,1.0002987068470326,-168.29715592566453
7.701602816,1.000223724712344,-168.55216953793615
7.706534912,1.0001356191151327,-168.80607539902672
7.71146752,1.0000393150713616,-169.05866486858085
7.716399616,0.9999405753738475,-169.30989195774237
7.721331712,0.9998452344508215,-169.55982887829327
7.726263808,0.999758874006632,-169.808436660867
7.731195904,0.9996867266314213,-170.05595947639364
7.736128,0.9996327665913202,-170.30261717929565
7.741060608,0.9996005757324135,-170.54865941593033
7.745992704,0.9995917830312641,-170.79440950581193
7.7509248,0.999607215557366,-171.04020954319864
7.755856896,0.9996458903554376,-171.28639516374548
7.760788992,0.999705519805805,-171.53324164743657
7.765721088,0.9997825244058377,-171.78107110928377
7.770653696,0.99987276840234,-172.0300589622859
7.775585792,0.999970628523266,-172.28037614091596
7.780517888,1.0000704395762432,-172.53208395361966
7.785449984,1.0001664267800734,-172.78517283870295
7.79038208,1.0002528183700852,-173.03955287022222
7.795314176,1.000324527772344,-173.29502731128858
7.800246784,1.000377344139917,-173.5513860870049
7.80517888,1.00040810519065,-173.8083413756563
7.810110976,1.0004150240138365,-174.06555966638052
7.815043072,1.0003974875967006,-174.32273045154915
7.819975168,1.000356570506216,-174.579476446769
7.824907776,1.0002947677226925,-174.83554199111848
7.829839872,1.000215415958708,-175.0906106956569
7.834771968,1.000123358644478,-175.34445179345676
7.839704064,1.000023945044342,-175.59702152614784
7.84463616,0.9999230003229294,-175.84816681187579
7.849568256,0.9998264318062091,-176.09792156448756
7.854500864,0.9997398948401648,-176.34638928483588
7.85943296,0.9996687089149132,-176.5937929386072
7.864365056,0.9996169077423843,-176.8402693793314
7.869297152,0.9995876765479574,-177.0862163609478
7.874229248,0.9995827855508403,-177.33193655292632
7.879161344,0.9996024905082446,-177.57772611302428
7.884093952,0.9996457090057674,-177.82396730770245
7.889026048,0.9997099801536746,-178.0709498860764
7.893958144,0.999791500711929,-178.31896819961452
7.89889024,0.999885483249358,-178.56819026423892
7.903822336,0.9999865965062573,-178.81879366479856
7.908754432,1.0000885949109009,-179.07081334821038
7.91368704,1.0001856778323512,-179.3242212331746
7.918619136,1.0002722249622473,-179.57893079431966
7.923551232,1.0003428349202936,-179.83473558231546
7.928483328,1.0003934716280425,179.90859338786206
7.933415424,1.000421089464773,179.651370780309
7.93834752,1.0004240860509677,179.39393868075643
7.943280128,1.0004021808108055,179.136631840872
7.948212224,1.0003565399901677,178.8797696305967
7.95314432,1.0002899954592899,178.62371968987324
7.958076416,1.0002062983573397,178.3686861417212
7.963008512,1.0001103552856585,178.11493165536882
