freq,mag,phase
6.0,0.9999927150115134,138.23380327569944
6.002287616,0.9999447086425204,138.07298413881617
6.004575232,0.9999017645288788,137.91282887687785
6.006862848,0.9998653396071859,137.753281252193
6.009150464,0.999837692973685,137.59416543785787
6.011438592,0.9998204462590216,137.43542470930998
6.013726208,0.9998147647637436,137.27687632049796
6.016013824,0.9998210009632787,137.11833039500542
6.01830144,0.9998388093457587,136.95963739965967
6.020589056,0.9998670482592682,136.80060317841466
6.022876672,0.9999039571828912,136.6411523503347
6.025164288,0.9999471465087028,136.4810885957162
6.027451904,0.9999939727993731,136.32042947051795
6.029740032,1.000041373898093,136.15908744317792
6.032027648,1.0000863391616737,135.9970840577728
6.034315264,1.0001262084631193,135.8345061834867
6.03660288,1.0001582580927597,135.6714171973748
6.038890496,1.000180601382516,135.50792167042255
6.041178112,1.0001918050991472,135.3442265367199
6.043465728,1.0001910218440804,135.180453125693
6.045753344,1.0001785177939175,135.01680184829002
6.04804096,1.0001548142894638,134.8534564383141
6.050329088,1.0001216279946568,134.6904927323187
6.052616704,1.0000809825757353,134.52808930144602
6.05490432,1.0000355135882186,134.36634681871882
6.057191936,0.9999879349682976,134.2053098430232
6.059479552,0.9999413144411087,134.04493812825302
6.061767168,0.9998986238665792,133.88525128060024
6.064054784,0.9998626256918373,133.72614977659399
6.0663424,0.9998354627210395,133.5675518450821
6.068630016,0.9998188972953971,133.4092387135399
6.070918144,0.999813972898122,133.25115570034032
6.07320576,0.9998209898456984,133.093022596775
6.075493376,0.9998398129638453,132.93473481731766
6.077780992,0.9998688136501981,132.7761190791263
6.080068608,0.9999062412484124,132.61704181802773
6.082356224,0.9999499720789665,132.4573939592012
6.08464384,0.999997070630559,132.2971039361573
6.086931456,1.0000446475814595,132.13611048329773
6.089219584,1.0000895375608523,131.97452610170788
6.0915072,1.0001291336247355,131.81229859451213
6.093794816,1.0001607067595901,131.64958642777086
6.096082432,1.0001823740545674,131.48651543674714
6.098370048,1.0001928161709213,131.32321233767567
6.100657664,1.0001911698599322,131.15986045060916
6.10294528,1.0001777805577712,130.99662572241937
6.105232896,1.0001533436467391,130.83370498465433
6.107520512,1.0001194310554982,130.6712099395142
6.10980864,1.0000781728727564,130.5092923069329
6.112096256,1.0000322711963756,130.348008729934
6.114383872,0.9999844553548405,130.1874202612846
6.116671488,0.9999378444983121,130.02754812770812
6.118959104,0.9998953387285678,129.86833688539022
6.12124672,0.9998596899739157,129.70970057327452
6.123534336,0.99983316373568,129.55155222360662
6.125821952,0.9998172385858136,129.39370712298287
6.128109568,0.9998132605617019,129.23602905988392
6.130397696,0.9998211915755129,129.07834271920336
6.132685312,0.999840654987574,128.9204680703952
6.134972928,0.9998704818727221,128.76225856049223
6.137260544,0.9999087308716655,128.60360795264393
6.13954816,0.9999529479914332,128.44431534633537
6.141835776,1.0000003097573291,128.28441870990528
6.144123392,1.0000479272271054,128.1238005483841
6.146411008,1.0000927899526662,127.96258621230004
6.148699136,1.000132023470012,127.80074931588233
6.150986752,1.000163165501139,127.63842039079968
6.153274368,1.000184120547078,127.47572396342865
6.155561984,1.0001936893664383,127.312807314064
6.1578496,1.0001914118855422,127.14988633831612
6.160137216,1.0001770912946248,126.98708643570342
6.162424832,1.0001518750512826,126.82461490009997
6.164712448,1.000117270167484,126.66255628198267
6.167000064,1.0000753385486636,126.50110359662031
6.169288192,1.00002903537357,126.34029329618696
6.171575808,0.9999809847450601,126.1801731288057
6.173863424,0.9999343756570424,126.02078554580376
6.17615104,0.9998920766632513,125.86202786725391
6.178438656,0.9998568827338644,125.70386199088246
6.180726272,0.9998309104757008,125.54617892841162
6.183013888,0.9998158237032124,125.38878557733565
6.185301504,0.9998126795332524,125.23156194541444
6.18758912,0.9998214718317641,125.07428218045713
6.189877248,0.9998418305646197,124.91682422670989
6.192164864,0.9998724211787969,124.75902613026271
6.19445248,0.9999112505388149,124.60073996649432
6.196740096,0.9999559333436869,124.44185384303093
6.199027712,1.0000036565762782,124.28232568122847
6.201315328,1.000051450474164,124.12210978041333
6.203602944,1.0000961964099526,123.96124285486282
6.20589056,1.00013496874382,123.79980121320538
6.208178688,1.0001655711803499,123.63784315278099
6.210466304,1.0001859049158761,123.47552778908577
6.21275392,1.0001947944106013,123.31304631703193
6.215041536,1.0001913984882138,123.15053439824769
6.217329152,1.0001763422207675,122.98817743035696
6.219616768,1.0001502230654677,122.82612429975956
6.221904384,1.0001148617279718,122.66453507512709
6.224192,1.0000724900066604,122.50353464101619
6.226479616,1.0000256641312772,122.34320438019233
6.228767744,0.9999775579933131,122.18354400195548
6.23105536,0.9999309669246897,122.02461719714279
6.233342976,0.9998888698683207,121.86634577044634
6.235630592,0.999854097181981,121.7086511998313
6.237918208,0.9998287613753194,121.55141441321096
6.240205824,0.999814317768364,121.39447342952377
6.24249344,0.9998120400714309,121.237686563705
6.244781056,0.999821867239347,121.08083635122412
6.247068672,0.9998429817009276,120.92380837203599
6.2493568,0.9998743491621138,120.76638456957899
6.251644416,0.9999138918089139,120.60846245627395
6.253932032,0.9999590533020335,120.4499907156545
6.256219648,1.000007080973837,120.29082842136992
6.258507264,1.0000549137501384,120.13099018943727
6.26079488,1.0000995329403755,119.97049308440059
6.263082496,1.0001380144359935,119.80942375989788
6.265370112,1.0001680174178273,119.6478237808473
6.26765824,1.000187723653303,119.48593953067807
6.269945856,1.0001956965149905,119.323829978856
6.272233472,1.0001915266395303,119.16173691378427
6.274521088,1.000175391833162,118.99980553495367
6.276808704,1.0001485597123272,118.83819849530991
6.27909632,1.0001125213973039,118.67704209086642
6.281383936,1.0000694360126607,118.51650812247355
6.283671552,1.0000222338934681,118.35663241768276
6.285959168,0.9999739087616055,118.19746025801948
6.288247296,0.9999272461494815,118.03901014303638
6.290534912,0.9998856330245943,117.8812144868562
6.292822528,0.9998512207955247,117.72398179642137
6.295110144,0.9998266198348956,117.56718176377348
6.29739776,0.9998129901497809,117.41070070597316
6.299685376,0.9998113734422852,117.25432798458186
6.301972992,0.9998219586256479,117.09793352893547
6.304260608,0.9998441209547411,116.94127772977991
6.306548224,0.9998762124883153,116.78427207746618
6.308836352,0.9999164287350215,116.62678429166473
6.311123968,0.9999621665145807,116.46862439443245
6.313411584,1.000010481939516,116.3098343760172
6.3156992,1.0000583695383212,116.15035503897906
6.317986816,1.0001028432793764,115.99023521631894
6.320274432,1.0001409582143546,115.8295355593603
6.322562048,1.0001703727678752,115.66835655313672
6.324849664,1.0001893282049397,115.50682981810627
6.327137792,1.0001965016932384,115.34513369136077
6.329425408,1.000191454783601,115.18344535819072
6.331713024,1.0001745578876917,115.02193231933444
6.33400064,1.0001467677650695,114.86074963936876
6.336288256,1.000110008662211,114.70007935063796
6.338575872,1.0000664114967845,114.53997080352744
6.340863488,1.00001885283866,114.38056200907904
6.343151104,0.9999701418963189,114.22186285587533
6.34543872,0.999923780999274,114.06384857709938
6.347726848,0.9998821877161841,113.90652432599502
6.350014464,0.9998483693825378,113.74975316801421
6.35230208,0.9998242813210185,113.59341213325568
6.354589696,0.9998115700505072,113.43737842272489
6.356877312,0.9998109489478183,113.28144601757224
6.359164928,0.999822462112538,113.1254359825778
6.361452544,0.9998454728979573,112.9692127669688
6.36374016,0.9998783188065435,112.81260281420124
6.366027776,0.9999191352424192,112.65546125808
6.368315904,0.9999654101572379,112.49769140010827
6.37060352,1.000014085844346,112.33925996478413
6.372891136,1.0000619717674522,112.18016634413642
6.375178752,1.0001062313046734,112.02039416007491
6.377466368,1.000144066829373,111.86004946014765
6.379753984,1.0001729480909207,111.69923170256841
6.3820416,1.0001910948331503,111.5381038467227
6.384329216,1.000197352043892,111.3767927348432
6.386617344,1.000191493257989,111.21553690237754
6.38890496,1.0001736524816145,111.05443584725234
6.391192576,1.000144979155932,110.89368713626888
6.393480192,1.0001074737897553,110.73344060354134
6.395767808,1.0000632918251444,110.57379786379003
6.398055424,1.0000152845332118,110.41484488702248
6.40034304,0.9999665404920732,110.2566004417769
6.402630656,0.999920094345014,110.09909726397512
6.404918272,0.9998790125101582,109.94220574851711
6.4072064,0.999845632496143,109.78588998677694
6.409494016,0.9998223020131477,109.62999398553606
6.411781632,0.9998102749746431,109.47438597893516
6.414069248,0.9998105251132408,109.31888501192037
6.416356864,0.9998229865794108,109.16326885294991
6.41864448,0.9998468134303256,109.00746154526152
6.420932096,0.9998806258261423,108.8512205120469
6.423219712,0.9999220846624972,108.69445167060242
6.425507328,0.9999687466325182,108.5370492465131
6.427795456,1.0000175848640915,108.37898582673883
6.430083072,1.0000656436259208,108.22024342666977
6.432370688,1.0001097235761252,108.06082474346184
6.434658304,1.0001470963102375,107.90084726446094
6.43694592,1.0001752423169814,107.7404009046823
6.439233536,1.0001927383226115,107.57963964400602
6.441521152,1.0001981628920797,107.4187338009883
6.443808768,1.0001913886641962,107.2578559273313
6.446096896,1.0001726131701232,107.0971757261497
6.448384512,1.000143223544664,106.93684705925438
6.450672128,1.0001048561841315,106.777030588108
6.452959744,1.0000600757010036,106.61785741662005
6.45524736,1.000011740059058,106.4593534656003
6.457534976,0.9999628541534079,106.30158845287247
6.459822592,0.9999164676947818,106.14451041226825
6.462110208,0.9998755754985484,105.9880934773431
6.464397824,0.9998428045902565,105.83221321966755
6.466685952,0.9998201255017288,105.67675955954937
6.468973568,0.9998089701813079,105.5215846861104
6.471261184,0.9998100965790913,105.3664854276397
6.4735488,0.9998234985345472,105.21129814845175
6.475836416,0.9998482716323478,105.05584526059104
6.478124032,0.9998827772906661,104.89999570258465
6.480411648,0.999925050486848,104.74359447476226
6.482699264,0.9999721725547774,104.58656710285484
6.48498688,1.0000212600093543,104.42885550478887
6.487275008,1.0000692588504674,104.2704279774946
6.489562624,1.000113114075495,104.11138916575551
6.49185024,1.0001500130465724,103.95176056900563
6.494137856,1.0001776800804099,103.79167376915879
6.496425472,1.0001943350923175,103.6312805644904
6.498713088,1.0001989850607829,103.47075106488427
6.501000704,1.000191122082494,103.31026171113999
6.50328832,1.0001714283769612,103.14998887051439
6.505576448,1.0001411620220457,102.99010918251835
6.507864064,1.0001021049795171,102.83072543264736
6.51015168,1.000056831798012,102.67197750595848
6.512439296,1.0000080678694787,102.5139426359915
6.514726912,0.9999590774274846,102.35662121804107
6.517014528,0.9999127375072537,102.20001005591214
6.519302144,0.999872226100486,102.04402466080872
6.52158976,0.9998399180441129,101.88859154395443
6.523877376,0.9998179161611339,101.73359325606908
6.526165504,0.9998077279781068,101.5788258838713
6.52845312,0.9998098754801804,101.4241235696525
6.530740736,0.9998240675869379,101.26934000876209
6.533028352,0.9998498104679062,101.11427911724992
6.535315968,0.9998851415390341,100.95878386588073
6.537603584,0.9999279671152985,100.80273865977539
6.5398912,0.9999755682546164,100.64605097732138
6.542178816,1.000024980577681,100.48867629176956
6.544466432,1.000072988053986,100.33061952148833
6.54675456,1.0001166352164133,100.1718895085372
6.549042176,1.0001530594913985,100.01260230823047
6.551329792,1.000179986112592,99.85287380682206
6.553617408,1.0001958743040722,99.69284907117235
6.555905024,1.000199567002334,99.53270970817347
6.55819264,1.0001908550801635,99.3725796650127
6.560480256,1.0001702258103125,99.21273084468922
6.562767872,1.0001390964958008,99.05326832579792
6.565056,1.0000993102723588,98.8943070939471
6.567343616,1.0000533287458047,98.73600004602083
6.569631232,1.0000042478976126,98.57841049284005
6.571918848,0.9999551605060227,98.42151391577227
6.574206464,0.999909058988407,98.26534127798915
6.57649408,0.9998689204863902,98.1098004558758
6.578781696,0.9998371786120702,97.95481774477831
6.581069312,0.9998158348500004,97.8002348098634
6.583356928,0.9998064539353175,97.64587487152639
6.585645056,0.9998095503417185,97.49158750558334
6.587932672,0.999824832175058,97.33719863857785
6.590220288,0.9998513818609422,97.1824802702595
6.592507904,0.9998875613400054,97.02735122447366
6.59479552,0.9999310153400901,96.87163764188934
6.597083136,0.9999790960649695,96.71532676832365
6.599370752,1.0000287476316332,96.55825908650719
6.601658368,1.0000768247870062,96.40051792554635
6.603945984,1.0001202107707854,96.24214479812271
6.606234112,1.0001561303778252,96.08320581676051
6.608521728,1.0001824800696122,95.92381226249765
6.610809344,1.0001974314443112,95.76414049950218
6.61309696,1.0002003391057905,95.60437726415172
6.615384576,1.0001905602435228,95.44466061694544
6.617672192,1.000168918311197,95.28516358332669
6.619959808,1.0001369081147276,95.12608996859454
6.622247424,1.0000963652952184,94.96758013404846
6.624535552,1.0000499446838833,94.80970048155899
6.626823168,1.0000006361858562,94.65251153254665
6.629110784,0.9999512864791382,94.49606691609841
6.6313984,0.9999053961011728,94.34033656718756
6.633686016,0.9998654853840974,94.18522226917644
6.635973632,0.9998343296642852,94.03067349632258
6.638261248,0.9998139281889817,93.87648186685885
6.640548864,0.9998054039836345,93.72252792354209
6.64283648,0.9998093637372231,93.56863642798521
6.645124608,0.999825587412048,93.41460937211949
6.647412224,0.9998530654467619,93.26025732303351
6.64969984,0.9998900761912897,93.10548258810483
6.651987456,0.9999342677026444,92.95012807651004
6.654275072,0.9999827848452559,92.79410942258097
6.656562688,1.0000325810466282,92.63737843100677
6.658850304,1.000080558678549,92.47996225686735
6.66113792,1.0001237419227216,92.32189623619145
6.663426048,1.0001591885584566,92.1632745492636
6.665713664,1.0001848140394036,92.00425623073005
6.66800128,1.0001990014438822,91.84493117158084
6.670288896,1.0002008866279186,91.68549534115111
6.672576512,1.000190109532706,91.52615717417679
6.674864128,1.0001676054407058,91.36704118637508
6.677151744,1.0001346853020858,91.20838858173403
6.67943936,1.0000933904333598,91.05026293733748
6.681726976,1.0000464840854015,90.892799659131
6.684015104,0.9999968064440321,90.73606379220455
6.68630272,0.999947412850315,90.58006012964884
6.688590336,0.9999015278621016,90.42472606497515
6.690877952,0.999862093882462,90.27004549023715
6.693165568,0.9998316358738865,90.11589899423181
6.695453184,0.9998118079900393,89.96214025411318
6.6977408,0.9998042951842646,89.80857434408234
6.700028416,0.9998092051921208,89.65505290610254
6.702316032,0.999826561637745,89.50138244601364
6.70460416,0.9998548682298317,89.34740379492675
6.706891776,0.9998927186853023,89.19295703492108
6.709179392,0.9999375345525929,89.0379176197593
6.711467008,0.9999864504981492,88.88219767322411
6.713754624,1.0000364011681884,88.7258068080812
6.71604224,1.0000843482974946,88.5686877812091
6.718329856,1.0001272447707137,88.4109465261111
6.720617472,1.0001621727981942,88.2526304534756
6.7229056,1.0001871361644659,88.09392829845163
6.725193216,1.0002005207047382,87.93493073376207
6.727480832,1.0002013224839357,87.7758565742306
6.729768448,1.0001895910309464,87.61689283440406
6.732056064,1.0001661534211872,87.45817651435117
6.73434368,1.0001323198458358,87.29987774101045
6.736631296,1.0000904372503714,87.14217229564167
6.738918912,1.0000427537723755,86.98511314117759
6.741206528,0.9999927933372214,86.82878295255964
6.743494656,0.9999433914045515,86.6731647880706
6.745782272,0.9998977065749891,86.51827990384149
6.748069888,0.9998586753926018,86.36402539344701
6.750357504,0.9998288025651751,86.21027747688929
6.75264512,0.9998098426803419,86.05691148794098
6.754932736,0.9998031982806033,85.90372202096688
6.757220352,0.999809149677506,85.75057022715504
6.759507968,0.9998273842271697,85.59724447481813
6.761795584,0.9998568157134864,85.44360206398565
6.764083712,0.9998953514237207,85.28946992990949
6.766371328,0.999940862901779,85.13476039855351
6.768658944,0.9999902144517258,84.9793502027251
6.77094656,1.0000404301026993,84.82325543651801
6.773234176,1.000088303269948,84.6664466470298
6.775521792,1.0001308326419907,84.5089877726143
6.777809408,1.0001653292232267,84.35099582111881
6.780097024,1.0001894629760237,84.19257366563886
6.782385152,1.0002018936678831,84.03392609748369
6.784672768,1.0002018598455187,83.87518268488463
6.786960384,1.000189110879856,83.71656776232717
6.789248,1.0001646030053184,83.55821867745709
6.791535616,1.0001299211788495,83.40033491074826
6.793823232,1.0000872800661453,83.24299689136318
6.796110848,1.000039195951295,83.08633514706055
6.798398464,0.9999888222367038,82.93039794520038
6.80068608,0.9999394130124125,82.77521313295733
6.802974208,0.9998938844637154,82.6207186011664
6.805261824,0.999855311885001,82.46686851834089
6.80754944,0.9998260206180423,82.31350709132141
6.809837056,0.9998079707811425,82.16051906101907
6.812124672,0.9998022560302124,82.0077107736855
6.814412288,0.9998092689525228,81.85489526857235
6.816699904,0.9998284258272658,81.7019282959808
6.81898752,0.9998586926205276,81.54859386710567
6.821275136,0.9998981336432853,81.39478122100427
6.823563264,0.9999442024864401,81.24036680645938
6.82585088,0.9999939737168893,81.08526252472502
6.828138496,1.0000444076940833,80.92942568415556
6.830426112,1.0000922623657265,80.77290745112305
6.832713728,1.0001344477626606,80.61574286646943
6.835001344,1.0001682744704412,80.45805285624337
6.83728896,1.0001917564977163,80.29993598119096
6.839576576,1.0002032897506257,80.1415965785315
6.841864704,1.0002021644027477,79.98319015960267
6.84415232,1.000188459493922,79.82490013740312
6.846439936,1.000163001727875,79.66691122690783
6.848727552,1.0001274276722192,79.50939076489821
6.851015168,1.0000839881462922,79.35243944257144
6.853302784,1.0000354413675714,79.19616518995437
6.8555904,0.9999848874643635,79.04062435468803
6.857878016,0.9999352969905873,78.88583912106056
6.860165632,0.9998899540378599,78.73174227203026
6.86245376,0.999851910239691,78.57826926646064
6.864741376,0.999823283361109,78.42531581835553
6.867028992,0.9998060895155416,78.27267805445871
6.869316608,0.9998013427208281,78.1202210586265
6.871604224,0.9998092530376528,77.9677549959461
6.87389184,0.999829521548676,77.81510527165803
6.876179456,0.999860734592787,77.66209411162319
6.878467072,0.9999010017443041,77.50856441922726
6.880754688,0.9999476841809295,77.35443197251163
6.883042816,0.9999978986868576,77.19959966580976
6.885330432,1.0000484837235513,77.04404266797242
6.887618048,1.0000961496288046,76.88781214587529
6.889905664,1.000138000532783,76.73091875242251
6.89219328,1.000171360495814,76.57349453660873
6.894480896,1.0001939902275798,76.41569111038258
6.896768512,1.0002045767703016,76.25763596671575
6.899056128,1.0002025205159628,76.09956907537453
6.901344256,1.0001876891353865,75.94159834622927
6.903631872,1.000161331386009,75.78395940203144
6.905919488,1.0001248852902314,75.62678111029177
6.908207104,1.000080746740006,75.47019378583056
6.91049472,1.0000315340333892,75.31430214003527
6.912782336,0.9999806270865322,75.15915025785347
6.915069952,0.9999311180017992,75.00475179547482
6.917357568,0.9998860569672603,74.85102619853821
6.919645184,0.9998484383469267,74.69794856344016
6.921933312,0.9998206074087013,74.54533661399914
6.924220928,0.9998042279854346,74.39305477379109
6.926508544,0.9998004232881992,74.24094511467977
6.92879616,0.9998094370394928,74.08880889776682
6.931083776,0.9998306815338975,73.93647231078512
