freq,mag,phase
6.0,1.00088780969667,-17.776505625141624
6.016064512,1.0006308571189697,-18.33548893473484
6.032128512,1.0003484870256278,-18.891522801294972
6.048193024,1.0000514988804072,-19.444356762862373
6.064257024,0.9997520465976995,-19.993836589118192
6.080321536,0.9994626777739221,-20.540021965568894
6.096385536,0.9991952092213142,-21.083123440719493
6.112450048,0.9989609786077179,-21.62340124209859
6.128514048,0.9987695198351526,-22.16135428024749
6.14457856,0.9986293244739641,-22.69750086268181
6.16064256,0.9985458567583778,-23.232529952182347
6.176707072,0.9985229958421057,-23.76705440694302
6.192771072,0.9985615716720808,-24.301835803188688
6.208835584,0.9986603149334881,-24.837618157153447
6.224899584,0.9988149460958127,-25.375040965287987
6.240964096,0.9990193046643924,-25.91472036677287
6.257028096,0.9992648264914086,-26.457196484626635
6.273092608,0.9995415860725696,-27.002929386387482
6.289156608,0.9998379316472334,-27.552204541871863
6.30522112,1.000141920029447,-28.10516365043929
6.32128512,1.000440398065047,-28.6618233347626
6.337349632,1.0007214138492764,-29.222086395783574
6.353413632,1.0009730839614728,-29.78560948632103
6.369478144,1.0011851659047717,-30.352053608084987
6.385542144,1.0013486235776314,-30.92089307658169
6.401606656,1.0014568851638244,-31.491467719314805
6.417670656,1.0015051835662532,-32.06313906718016
6.433735168,1.0014913473060008,-32.63526566480628
6.449799168,1.0014159541833358,-33.20709066685238
6.46586368,1.0012821796257967,-33.77780855198128
6.48192768,1.0010950875453504,-34.34685116117743
6.497992192,1.0008624918598024,-34.91367228555468
6.514056192,1.0005939233573982,-35.477765674345136
6.530120704,1.0003005934222704,-36.038751796928366
6.546184704,0.999994370694227,-36.596387655295835
6.562249216,0.9996879997380128,-37.1506169694904
6.578313216,0.9993941508394651,-37.70151852038047
6.594377728,0.9991250803984177,-38.249306180771356
6.610441728,0.998891998276479,-38.79428217769456
6.62650624,0.9987046996404481,-39.33700318273819
6.64257024,0.998571043162501,-39.87799927692056
6.658634752,0.9984965327380382,-40.41791606411439
6.674698752,0.9984846150134631,-40.95749787299105
6.690763264,0.9985357836615733,-41.49748345627243
6.706827264,0.9986480307746386,-42.03862764735437
6.722891776,0.9988167137166432,-42.58156763878195
6.738955776,0.9990352202790582,-43.126977145313234
6.755020288,0.9992939924431213,-43.675353229126834
6.771084288,0.9995828817486979,-44.22713832959867
6.7871488,0.9998898452808922,-44.78257745382191
6.8032128,1.0002020539430454,-45.3418738060633
6.819277312,1.0005065858892428,-45.90496179380455
6.835341312,1.0007909472443615,-46.47170529629822
6.851405824,1.001043187919494,-47.041730064467046
6.867469824,1.0012529599456177,-47.61470674358904
6.883534336,1.0014114800093041,-48.18998160288818
6.899598336,1.001511973497949,-48.76703564050805
6.915662848,1.0015504372667006,-49.34511472068075
6.931726848,1.0015250050274784,-49.92345036871028
6.94779136,1.0014367579938213,-50.50131802507443
6.96385536,1.0012889688902833,-51.07803450785817
6.979919872,1.0010877170357664,-51.652941825734736
6.995983872,1.0008413065647006,-52.225448734454424
7.012048384,1.0005598227078176,-52.79502272864946
7.028112384,1.000254748459449,-53.36142490804325
7.044176896,0.9999386460593042,-53.92435198481365
7.060240896,0.999624641024662,-54.48381255956005
7.076305408,0.9993257424662887,-55.039829092398
7.092369408,0.9990544044343954,-55.5927436886609
7.10843392,0.9988218660044953,-56.14284662129152
7.12449792,0.9986378579354268,-56.690714187719756
7.140562432,0.9985101311369986,-57.23689815585991
7.156626432,0.9984441565132526,-57.7821436417634
7.172690944,0.9984429585496492,-58.32717888107022
7.188754944,0.9985063784952358,-58.8727449283986
7.204819456,0.9986321758822252,-59.41963346504913
7.220883456,0.9988150398085026,-59.968508327414824
7.236947968,0.9990477044691612,-60.51999916004692
7.253011968,0.9993205115837049,-61.074665037644984
7.26907648,0.9996219564815949,-61.632894382561076
7.28514048,0.9999401050247883,-62.19496812043846
7.301204992,1.0002615311208778,-62.76095279751528
7.317268992,1.0005728641559835,-63.33085728672751
7.333333504,1.0008612819047196,-63.90451408698479
7.349397504,1.0011149624089275,-64.48151996041337
7.365462016,1.0013231699703884,-65.0614299619744
7.381526016,1.0014772400746406,-65.64371369837208
7.397590528,1.0015708789280304,-66.22763031142776
7.413654528,1.0015999698439297,-66.81251420111464
7.42971904,1.0015632194501618,-67.39757101350511
7.44578304,1.0014619136077851,-67.98204012002805
7.461847552,1.0013003380216328,-68.56523118272993
7.477911552,1.0010847374809146,-69.14640246732392
7.493976064,1.0008239720066272,-69.72503061204122
7.510040064,1.0005288551026326,-70.30062689529574
7.526104576,1.000211260201722,-70.87284443912704
7.542168576,0.9998844263002271,-71.44157556641046
7.558233088,0.99956200727106,-72.00663547473037
7.574297088,0.9992569818478446,-72.56824771404023
7.5903616,0.998982222401795,-73.12666645720239
7.6064256,0.9987492376737139,-73.68232139325951
7.622490112,0.9985677743769239,-74.2356834734288
7.638554112,0.9984453816175944,-74.78751452676298
7.654618624,0.9983874582982262,-75.33841812016723
7.670682624,0.998396320083689,-75.88928219404276
7.686747136,0.998471951516335,-76.44078712757312
7.702811136,0.9986111907196833,-76.99380070003932
7.718875648,0.9988085591498737,-77.54894357523924
7.734939648,0.9990557878369557,-78.10691815589101
7.75100416,0.9993428779586037,-78.66821613459408
7.76706816,0.999657976438827,-79.23325371043221
7.783132672,0.9999881177901724,-79.80229325285748
7.799196672,1.0003197201169038,-80.37541657810651
7.815261184,1.0006388697875002,-80.95258213383313
7.831325184,1.0009326089743504,-81.53352505733228
7.847389696,1.0011886030153343,-82.11795322000543
7.863453696,1.001396275358122,-82.7052611076831
7.879518208,1.0015469931348875,-83.29493120964072
7.895582208,1.0016342918029753,-83.88621607176178
7.91164672,1.00165456783906,-84.47836925453034
7.92771072,1.0016069324567716,-85.07060630568292
7.943775232,1.0014929106618606,-85.66215625331617
7.959839232,1.0013170718144755,-86.25223361142874
7.975903744,1.0010868648082487,-86.8401892234057
7.991967744,1.00081122606376,-87.42546479457876
8.008032256,1.0005016823524369,-88.0074982478574
8.024096256,1.0001708447807187,-88.58605570435377
8.040160768,0.9998321976146963,-89.16092152742284
8.056224768,0.9994999382726497,-89.73206175190526
8.07228928,0.9991876634434652,-90.29964927147999
8.08835328,0.9989084893195138,-90.86401688682069
8.104417792,0.9986738963616867,-91.42554060156513
8.120481792,0.9984939072225143,-91.98486228027339
8.136546304,0.9983759024610144,-92.54260426592401
8.152610304,0.9983251080872437,-93.0995886921476
8.168674816,0.9983437829831151,-93.65654779062345
8.184738816,0.9984311349779729,-94.21435558264277
8.200803328,0.9985839759969101,-94.77378469384274
8.216867328,0.998795870415508,-95.3355560403713
8.23293184,0.9990584223693447,-95.90032080276826
8.24899584,0.999360614007247,-96.4686348713004
8.265060352,0.9996902742245961,-97.04082326279928
8.281124352,1.0000334845853367,-97.61723061675286
8.297188864,1.000376526687948,-98.19784804194904
8.313252864,1.0007049234014334,-98.78263794241244
8.329317376,1.0010052194316252,-99.37133041202833
8.345381376,1.0012648981781358,-99.96352709005308
8.361445888,1.0014733415939,-100.55870002987494
8.377509888,1.0016215802179882,-101.1562063662017
8.3935744,1.0017036455592203,-101.75530362526413
8.4096384,1.0017158306423544,-102.35522975404561
8.425702912,1.0016574924500272,-102.95512814270772
8.441766912,1.0015307990347646,-103.55418828797919
8.457831424,1.0013408786137359,-104.15171606430694
8.473895424,1.0010953665116638,-104.74690719218842
8.489959936,1.000804180648763,-105.33923609190924
8.506023936,1.0004792155953621,-105.92820930124537
8.522088448,1.0001338021151311,-106.51354638278926
8.538152448,0.999782122258518,-107.09500485959481
8.55421696,0.9994385645830862,-107.67265788234097
8.57028096,0.9991175536347884,-108.2466170584581
8.586345472,0.9988322879799876,-108.81727896575381
8.602409984,0.9985947203631156,-109.38504695944995
8.618473472,0.9984147247837099,-109.95062231836991
8.634537984,0.9983000753137504,-110.514664396425
8.650602496,0.998255710005672,-111.07798677604417
8.666667008,0.998283511122445,-111.64140251083934
8.682730496,0.9983825053663699,-112.20579676130636
8.698795008,0.9985488145629654,-112.77196903695251
8.71485952,0.9987758358761686,-113.34063195797621
8.730924032,0.9990541195159364,-113.9125143333966
8.74698752,0.9993725132350021,-114.48812447229234
8.763052032,0.9997178538130664,-115.06783106066297
8.779116544,1.0000758623526036,-115.65188179785834
8.795181056,1.00043183138504,-116.24036995886465
8.811244544,1.000771160422615,-116.83315585287365
8.827309056,1.0010797803461746,-117.42996179732243
8.843373568,1.0013448984151967,-118.03039434450879
8.85943808,1.0015554840277152,-118.63385557858267
8.875501568,1.0017027783459018,-119.23966716730745
8.89156608,1.0017806060582493,-119.84705536811387
8.907630592,1.0017853757751036,-120.4551860580787
8.923695104,1.0017168989245233,-121.06324632455188
8.939758592,1.00157774923005,-121.67036547701626
8.955823104,1.001373355215212,-122.27572687272064
8.971887616,1.0011120580856454,-122.878683624686
8.987952128,1.0008042987516848,-123.47856492272716
9.004015616,1.0004626899236952,-124.07491310327137
9.020080128,1.000101229353169,-124.667454162908
9.03614464,0.9997346380184574,-125.25594823396894
9.052209152,0.9993780908310134,-125.84048339977927
9.06827264,0.9990463083918087,-126.4212251259313
9.084337152,0.9987531676642745,-126.99852442580413
9.100401664,0.9985106856212356,-127.57292199895569
9.116466176,0.9983292121766767,-128.14504485266784
9.132529664,0.9982165272138089,-128.71568333268667
9.148594176,0.9981772970040161,-129.2856368841712
9.164658688,0.9982135384236346,-129.85575960020356
9.1807232,0.9983238222870501,-130.42700048887065
9.196786688,0.9985037779969386,-131.00017512858915
9.2128512,0.9987463172461334,-131.57601698904764
9.228915712,0.9990414812103042,-132.15528243640208
9.244980224,0.9993772111957947,-132.73846873421246
9.261043712,0.9997398426650398,-133.3259702373992
9.277108224,1.0001143241142947,-133.91801942613142
9.293172736,1.000485408404019,-134.51470755480085
9.309237248,1.0008378427982918,-135.11584656455696
9.325300736,1.001156862014011,-135.72119913024736
9.341365248,1.001429503284388,-136.33024674921023
9.35742976,1.0016442090800723,-136.9424215175211
9.373494272,1.0017922311465086,-137.55698913564424
9.38955776,1.0018671158762746,-138.17312766895608
9.405622272,1.0018655064577084,-138.7900052577848
9.421686784,1.0017875212171508,-139.40668991068827
9.437751296,1.0016359874753777,-140.02230987598938
9.453814784,1.001416825172182,-140.63608531559942
9.469879296,1.001138889414083,-141.24727520602775
9.485943808,1.0008133463013809,-141.8552106683832
9.50200832,1.0004534676525567,-142.45942070018415
9.518071808,1.0000739040668536,-143.05959404025637
9.53413632,0.9996902304834778,-143.65556594705234
9.550200832,0.9993181863590431,-144.2474003599593
9.566265344,0.9989733310449632,-144.8352585377435
9.582328832,0.9986697803596329,-145.41956237388436
9.598393344,0.9984201979849149,-146.00088663759234
9.614457856,0.9982353045401714,-146.57987026752286
9.630522368,0.9981227670384332,-147.1573460622867
9.646585856,0.9980874789452668,-147.7341675312003
9.662650368,0.9981312855856249,-148.3112710037592
9.67871488,0.9982524329956197,-148.8895789145846
9.694779392,0.9984462482151607,-149.46995037396374
9.71084288,0.9987050343053261,-150.05321596127231
9.726907392,0.9990181266098725,-150.64009548894995
9.742971904,0.9993728571633691,-151.23109684835325
9.759036416,0.9997547985643834,-151.8266936828337
9.775099904,1.0001482553864933,-152.4270451468374
9.791164416,1.0005369892813292,-153.0322478234954
9.807228928,1.000905131975507,-153.6421246965204
9.82329344,1.0012373623323405,-154.2563762023614
9.839356928,1.0015199241160426,-154.87447847944836
9.85542144,1.001741217606926,-155.49582990245293
9.871485952,1.0018919451248764,-156.11960300858547
9.887550464,1.0019655999719759,-156.7450198037695
9.903613952,1.0019590107034073,-157.3711378785754
9.919678464,1.0018721068065872,-157.99697484377762
9.935742976,1.0017082538059872,-158.621693744332
9.951807488,1.0014737448845015,-159.2443995726024
9.967870976,1.001178024325662,-159.86433399166714
9.983935488,1.0008331075228127,-160.48082786683264
10.0,1.000452869248604,-161.09338654812439
10.016064512,1.0000527955385021,-161.70169365876362
10.032129024,0.9996492580269398,-162.30556818938135
10.048192512,0.999258771348769,-162.90507004368084
10.064257024,0.998897661662197,-163.50044270893318
10.080321536,0.9985807020874307,-164.09208955396528
10.096386048,0.9983213771915359,-164.680621898859
10.112449536,0.9981303135406046,-165.26673801010864
10.128514048,0.9980158624046777,-165.851301108468
10.14457856,0.9979829254639281,-166.43523921192727
10.160643072,0.9980332695854831,-167.01949301088248
10.17670656,0.9981648980523273,-167.60505041725548
10.192771072,0.9983728325551134,-168.19285652218772
10.208835584,0.9986488198118829,-168.78372223753973
10.224900096,0.9989814695199754,-169.37840536012476
10.240963584,0.9993574266779571,-169.9775004010132
10.257028096,0.9997613182904376,-170.58139141304207
10.273092608,1.0001766959862979,-171.1903727222407
10.28915712,1.0005863845424054,-171.8044297161007
10.305220608,1.0009736072824953,-172.42340367551014
10.32128512,1.0013225220065856,-173.04697599845133
10.337349632,1.001618422828251,-173.67459442748628
10.353414144,1.0018492609487142,-174.30558762641994
10.369477632,1.0020053525289492,-174.93913692024705
10.385542144,1.0020798186154904,-175.57434927881602
10.401606656,1.0020696035209982,-176.210267397344
10.417671168,1.00197451818983,-176.84590096702152
10.433734656,1.0017982804825243,-177.48028690287305
10.449799168,1.001547853731365,-178.1125313922552
10.46586368,1.0012331085235566,-178.74178984891088
10.481928192,1.000866614567452,-179.36742765127028
10.49799168,1.0004632661984996,-179.98886321137326
10.514056192,1.0000393329366282,179.39417278599777
10.530120704,0.9996123214763831,178.78190787439314
10.546185216,0.999199629547208,178.17427647714402
10.562248704,0.9988183426595226,177.5710258083747
10.578313216,0.9984843103487598,176.97169172512292
10.594377728,0.9982113349639282,176.37565105059952
10.61044224,0.9980111333392178,175.78212588868882
10.626505728,0.9978921715497602,175.19025662343074
10.64257024,0.9978596214997897,174.59902192447043
10.658634752,0.9979151768463564,174.00741232517774
10.674699264,0.998057068844242,173.41440945220836
10.690762752,0.9982795248790561,172.81903699969456
10.706827264,0.9985739175399105,172.2203576034158
10.722891776,0.9989282665503383,171.61764541553333
10.738956288,0.9993282360851651,171.01025004314332
10.755019776,0.9997575048982946,170.39774569933135
10.771084288,1.0001986422171736,169.7798650840505
10.7871488,1.0006335219006752,169.15659429300024
10.803213312,1.0010443038483088,168.52809342637977
10.8192768,1.0014141102916605,167.8947249674174
10.835341312,1.0017276867048113,167.2570793779626
10.851405824,1.0019717662968466,166.61584621328225
10.867470336,1.0021363558921879,165.97191920773793
10.883533824,1.002214345043901,165.32625463118146
10.899598336,1.0022020200684731,164.67982184968923
10.915662848,1.0020997876194981,164.03372610837175
10.93172736,1.0019113202203398,163.3889433550594
10.947790848,1.0016437668782638,162.74646748707787
10.96385536,1.0013079421238784,162.10714439794526
10.979919872,1.0009171393503842,161.47171154291408
10.995984384,1.0004870461037787,160.84070679606697
11.012047872,1.0000352842431737,160.21454395450922
11.028112384,0.9995800931478563,159.5933324670076
11.044176896,0.9991403245425212,158.97706907536585
11.060241408,0.9987338366526192,158.36547227220476
11.076304896,0.9983777640827483,157.75805155804358
11.092369408,0.9980867889991186,157.15413876894772
11.10843392,0.9978734440489447,156.55295733234752
11.124498432,0.9977465592222813,155.9535012094945
11.14056192,0.9977119742339229,155.35473214936368
11.156626432,0.9977714506083519,154.7555948393677
11.172690944,0.9979229913002824,154.15496137957197
11.188755456,0.9981607064741796,153.55178971397842
11.204818944,0.9984752972911948,152.94513913428565
11.220883456,0.9988539288010058,152.33415598672366
11.236947968,0.9992815861913926,151.71817581225133
11.25301248,0.9997407811478692,151.09672684236625
11.269075968,1.000212629940449,150.46955159360468
11.28514048,1.0006782451653715,149.8366183431023
11.301204992,1.0011181995223133,149.1980810366988
11.317269504,1.0015146111467228,148.55433604205098
11.333332992,1.001850840437276,147.90599032515829
11.349397504,1.002113169615184,147.25382006737593
11.365462016,1.0022903812799655,146.59874365544903
11.381526528,1.0023750003548475,145.94174167585834
11.397590016,1.0023629786153354,145.28396146432814
11.413654528,1.002254377341222,144.62648999369216
11.42971904,1.0020533487566874,143.97042186492146
11.445783552,1.0017673753622485,143.31681332912564
11.46184704,1.001407949052261,142.66654707345702
11.477911552,1.0009890340713197,142.02045148328688
11.493976064,1.000527758971308,141.3790800408425
11.510040576,1.0000425439940108,140.74288465678575
11.526104064,0.999553227755996,140.11205463597875
11.542168576,0.9990797973742902,139.48649806559712
11.558233088,0.9986418491891197,138.86595797389734
11.5742976,0.9982574564360572,138.24996547388542
11.590361088,0.997942738300792,137.63776265154388
11.6064256,0.9977109481367816,137.02847932321086
11.622490112,0.9975721227091258,136.42112161580675
11.638554624,0.99753244217003,135.81454770470646
11.654618112,0.9975940447968387,135.20758661944373
11.670682624,0.9977548884325236,134.5990595877209
11.686747136,0.9980087860305547,133.98783729687713
11.702811648,0.9983460033493459,133.37290521587428
11.718875136,0.9987527734108145,132.75329766820062
11.734939648,0.9992129154690826,132.12835757490592
11.75100416,0.999707697294322,131.497540819852
11.767068672,1.000217222984169,130.86052141813718
11.78313216,1.0007204632628801,130.21727130763148
11.799196672,1.0011970083992048,129.56798292542115
11.815261184,1.0016271913777899,128.91305205932903
11.831325696,1.001993167319942,128.25311929682493
11.847389184,1.0022797802278778,127.58899873626035
11.863453696,1.0024749443066208,126.92170414411478
11.879518208,1.0025702248784507,126.252282265647
11.89558272,1.0025612057530309,125.5819434908719
11.911646208,1.0024475934066281,124.91188745743689
11.92771072,1.0022336097010314,124.2432921890064
11.943775232,1.0019272234251233,123.57727621369037
11.959839744,1.0015405560982393,122.91483633822581
11.975903232,1.0010886953269822,122.2568832582175
11.991967744,1.0005898978570889,121.60401321704965
12.008032256,1.000064034471459,120.95673521751142
12.024096768,0.9995326687990467,120.31522811146277
12.040160256,0.999017266912694,119.67948773757055
12.056224768,0.9985392518375102,119.04921068572722
12.07228928,0.9981182851852844,118.42385732430971
12.088353792,0.9977720791895867,117.80270019181894
12.10441728,0.9975152849758433,117.18476065064239
12.120481792,0.9973590730865477,116.56898207766385
12.136546304,0.9973102872965731,115.95411683386857
12.152610816,0.9973716262752405,115.33890414962889
12.168674304,0.9975414139685594,114.72205060125458
12.184738816,0.9978129240512843,114.10233422870685
12.200803328,0.9981758886360473,113.4785978252195
12.21686784,0.998615887704646,112.84986373105035
12.232931328,0.9991150469116403,112.21531373893795
12.24899584,0.9996535398194762,111.57435800220624
12.265060352,1.0002093423771237,110.92669047942469
12.281124864,1.0007599943793015,110.272193507371
12.297188352,1.0012828576074595,109.61105994614184
12.313252864,1.0017565352306084,108.94373720876534
12.329317376,1.0021614334055413,108.27087201761478
12.345381888,1.0024807192208791,107.59335270085285
12.361445376,1.002700709190594,106.91224792029954
12.377509888,1.0028121314047438,106.22874589530444
