freq,mag,phase
6.0,0.9995913857219895,-34.47083326239813
6.002287104,0.999578350586574,-34.56535701103487
6.004574208,0.999591366840694,-34.659888760744245
6.006861312,0.9996307476265037,-34.75482476078497
6.009147904,0.9996939142497457,-34.85052843393808
6.011435008,0.9997768566750984,-34.94735638720191
6.013722112,0.9998743849597804,-35.04550712137406
6.016009216,0.9999802675783771,-35.14512380202713
6.01829632,1.000087648074537,-35.24635295498218
6.020583424,1.000189675779237,-35.34911835512259
6.022870016,1.000279902610457,-35.45330901293479
6.02515712,1.0003524566557556,-35.55871715605817
6.027444224,1.0004028723504022,-35.66507044872594
6.029731328,1.0004277071486352,-35.77196666694389
6.032018432,1.0004255498701506,-35.87905371443973
6.034305536,1.0003963106056288,-35.98594859110797
6.036592128,1.0003422491429819,-36.092201867796526
6.038879232,1.0002663706728747,-36.197570437400714
6.041166336,1.000173705918617,-36.30177402176882
6.04345344,1.000069851482941,-36.40449613905397
6.045740544,0.9999620575032774,-36.50574964967694
6.048027648,0.9998567982907018,-36.6054499205936
6.05031424,0.9997606503241562,-36.703683908188445
6.052601344,0.9996799486902281,-36.80070479200486
6.054888448,0.9996200581293406,-36.896686947876134
6.057175552,0.999584583979299,-36.99199096083492
6.059462656,0.9995759313662891,-37.0869272533878
6.06174976,0.999594488357542,-37.18202333675567
6.064036352,0.9996393695821045,-37.2776157541952
6.066323456,0.9997073289362274,-37.37401309791118
6.06861056,0.999794362674847,-37.471611595261905
6.070897664,0.9998948183588722,-37.57056472324725
6.073184768,1.000002199864111,-37.67105331930906
6.075471872,1.0001098400889337,-37.77315705451155
6.077758464,1.000210697429482,-37.876785205548835
6.080045568,1.0002984406704147,-37.98179190846834
6.082332672,1.0003671946893478,-38.08799121564945
6.084619776,1.0004130282928798,-38.1950504476045
6.08690688,1.0004325975251027,-38.30257986749608
6.089193984,1.0004247905160137,-38.4102793188461
6.091481088,1.000390233349568,-38.517637231951994
6.09376768,1.0003307388633333,-38.62436832042962
6.096054784,1.000250463059872,-38.73007262798656
6.098341888,1.0001544599125796,-38.834519199413215
6.100628992,1.0000485878648522,-38.937528373004206
6.102916096,0.9999398104904581,-39.03899745836065
6.1052032,0.9998352728229748,-39.138926351845576
6.107489792,0.9997410632710475,-39.23743219972648
6.109776896,0.9996637986283544,-39.33467644343935
6.112064,0.9996080357344229,-39.43099578314534
6.114351104,0.9995776411629168,-39.526706759520316
6.116638208,0.9995745322118624,-39.6221744964757
6.118925312,0.9995986836385575,-39.71781356563061
6.121211904,0.9996487300129319,-39.81403369655152
6.123499008,0.9997215215405104,-39.91119926213253
6.125786112,0.999812462168005,-40.009515444560364
6.128073216,0.9999155496541559,-40.109298370409974
6.13036032,1.0000243862875944,-40.210672808145766
6.132647424,1.0001319973257075,-40.31362029122474
6.134934016,1.000231294020222,-40.41808597559716
6.13722112,1.0003162059577617,-40.52395002890083
6.139508224,1.0003811519487493,-40.63094020453573
6.141795328,1.0004222124974913,-40.73868518960266
6.144082432,1.0004364722640269,-40.84688528502369
6.146369536,1.0004230341400822,-40.955081118380065
6.148656128,1.0003829759000917,-41.06294756366152
6.150943232,1.0003184202887132,-41.17005908038665
6.153230336,1.000233921427831,-41.27610473915015
6.15551744,1.00013461553155,-41.380858368633
6.157804544,1.000027049646497,-41.48412793205477
6.160091648,0.9999177721065096,-41.58577663885217
6.162378752,0.9998138704357684,-41.685952231597085
6.164665344,0.999721967174822,-41.784691656268286
6.166952448,0.99964809479546,-41.882257281263385
6.169239552,0.9995970248867578,-41.97893924396156
6.171526656,0.9995718278835912,-42.07503300496085
6.17381376,0.9995741361705492,-42.171024708349854
6.176100864,0.9996038836026759,-42.26727900177216
6.178387456,0.9996593787014583,-42.36413673937801
6.18067456,0.9997367403675352,-42.4619868070815
6.182961664,0.9998310456657474,-42.5610958493546
6.185248768,0.9999367884769519,-42.66176947707139
6.187535872,1.0000465733528685,-42.763989577491614
6.189822976,1.0001538629184086,-42.8677839415978
6.192109568,1.0002516154288372,-42.97312166663155
6.194396672,1.0003334929571803,-43.079778218916715
6.196683776,1.0003943397224597,-43.18755591548391
6.19897088,1.0004304559479504,-43.29600605543684
6.201257984,1.0004391967416317,-43.40481874841842
6.203545088,1.0004200628390645,-43.51360409313293
6.20583168,1.0003746378262612,-43.62190773522304
6.208118784,1.0003051921428696,-43.72941308951397
6.210405888,1.000216789009329,-43.83577430362664
6.212692992,1.0001144481174455,-43.940771103815756
6.214980096,1.000004955189897,-44.044247799574826
6.2172672,0.9998954667718852,-44.14617164572788
6.219553792,0.9997927891514935,-44.24655496152169
6.221840896,0.9997034108253947,-44.345540003360306
6.224128,0.9996334384845774,-44.44339439054608
6.226415104,0.999586813325826,-44.54043566328589
6.228702208,0.9995668827475673,-44.63698217490748
6.230989312,0.9995749571460198,-44.73347374256505
6.233275904,0.999610251266839,-44.83031791499044
6.235563008,0.9996708072279471,-44.92787646385373
6.237850112,0.9997526876007807,-45.026473156553955
6.240137216,0.9998505187815896,-45.126401882353875
6.24242432,0.9999584136995087,-45.22791269231532
6.244711424,1.0000691397668506,-45.33095886909538
6.246998528,1.0001757755854483,-45.43564382407247
6.24928512,1.0002715008366523,-45.541825151274885
6.251572224,1.00035014850889,-45.64933893154333
6.253859328,1.0004066188711094,-45.75780360033164
6.256146432,1.0004376588784643,-45.86699773622816
6.258433536,1.0004409970663886,-45.97641565060921
6.26072064,1.0004163679648344,-46.085704999324975
6.263007232,1.000365334560636,-46.19445575167737
6.265294336,1.000291274344382,-46.30229325176845
6.26758144,1.000198683591834,-46.409008565085166
6.269868544,1.0000936726528757,-46.51429151416188
6.272155648,0.9999829431176871,-46.617994757592776
6.274442752,0.9998734701940859,-46.72011973147699
6.276729344,0.9997721465793294,-46.820740050600655
6.279016448,0.9996855464804449,-46.92001183365828
6.281303552,0.9996195076858317,-47.01816034679842
6.283590656,0.9995775937814201,-47.115565907520704
6.28587776,0.9995630045958079,-47.21256257560691
6.288164864,0.9995766561048064,-47.30959742842907
6.290451456,0.9996176237205104,-47.40700809388208
6.29273856,0.9996831786930644,-47.505257981756515
6.295025664,0.9997694007758593,-47.6046211757724
6.297312768,0.9998705038752892,-47.705370995622445
6.299599872,0.9999801979848418,-47.80769492988945
6.301886976,1.0000916695492574,-47.91163942504456
6.304173568,1.0001972805614778,-48.017219979951456
6.306460672,1.0002908252391194,-48.124226063816685
6.308747776,1.00036602624322,-48.232488836808734
6.31103488,1.0004180659904813,-48.34176247727517
6.313321984,1.000443747028765,-48.45156805656063
6.315609088,1.000441579095845,-48.561581531044084
6.317896192,1.00041120345489,-48.671397853621805
6.320182784,1.0003550214729657,-48.780599009465476
6.322469888,1.000276181100488,-48.8888013559546
6.324756992,1.0001799879324524,-48.99580200134253
6.327044096,1.000072601264867,-49.10132173851298
6.3293312,0.9999607028285477,-49.205281986212064
6.331618304,0.9998514309257811,-49.30763316113508
6.333904896,0.9997518297622475,-49.40844423577596
6.336192,0.9996683469072672,-49.50798527000431
6.338479104,0.9996060823883584,-49.606443060144215
6.340766208,0.9995693998242899,-49.70423884248542
6.343053312,0.9995603363476656,-49.801699498696074
6.345340416,0.9995797807359708,-49.89929038007845
6.347627008,0.9996261280806246,-49.997358280238494
6.349914112,0.9996965777977761,-50.09629805368816
6.352201216,0.9997869202381755,-50.19644028611575
6.35448832,0.9998911221925857,-50.29801049664928
6.356775424,1.000002526205321,-50.401147826760955
6.359062528,1.0001141510697977,-50.50599109005654
6.36134912,1.000218617088768,-50.612388364992185
6.363636224,1.0003097562611014,-50.720239763452
6.365923328,1.000381170235455,-50.8293014937822
6.368210432,1.0004287422582918,-50.93929959727341
6.370497536,1.0004490715683756,-51.04977310552478
6.37278464,1.000441025594497,-51.16037455072049
6.375071232,1.000405269606039,-51.27065797387648
6.377358336,1.0003436477748024,-51.3802905517272
6.37964544,1.0002603662811953,-51.48884747709667
6.381932544,1.0001608017061627,-51.59611003112432
6.384219648,1.0000511154155363,-51.701880654596565
6.386506752,0.9999381836759236,-51.80604876634678
6.388793344,0.9998294995269099,-51.90863753185715
6.391080448,0.9997318434974924,-52.00970859764353
6.393367552,0.9996515555108186,-52.109504306852465
6.395654656,0.9995938582084252,-52.20832166919046
6.39794176,0.9995621483943009,-52.306515775112615
6.400228864,0.9995586123991729,-52.404449855021866
6.402515968,0.9995836288387271,-52.50256854150263
6.40480256,0.9996353989618832,-52.60125290001132
6.407089664,0.9997109491856222,-52.70092571007741
6.409376768,0.9998050274061937,-52.801836403866105
6.411663872,0.9999119836676489,-52.90425193118006
6.413950976,1.0000248756405092,-53.00824720551564
6.41623808,1.0001364152817815,-53.1139272574223
6.418524672,1.0002395883838386,-53.221232165492886
6.420811776,1.000327934604357,-53.32989062584
6.42309888,1.0003955636061546,-53.43971953889709
6.425385984,1.0004381906439936,-53.55041230062912
6.427673088,1.000453152822233,-53.661552248759804
6.429960192,1.0004394252985678,-53.772672431531824
6.432246784,1.000397970391966,-53.88346391263925
6.434533888,1.0003315784026874,-53.993475639606444
6.436820992,1.0002438599561032,-54.102371723693686
6.439108096,1.0001408821377362,-54.209913510481115
6.4413952,1.0000292068457235,-54.315893702336155
6.443682304,0.9999157631908624,-54.42031125552351
6.445968896,0.9998079168874007,-54.523062468962365
6.448256,0.9997124460698956,-54.62442347949761
6.450543104,0.9996356501889511,-54.72446701328978
6.452830208,0.9995821882961553,-54.82362304146181
6.455117312,0.9995558428926954,-54.9222114826829
6.457404416,0.999558033663246,-55.02064635793056
6.459691008,0.9995885071549045,-55.119351429085185
6.461978112,0.9996458076148472,-55.21869224946286
6.464265216,0.999725919777727,-55.31911843401408
6.46655232,0.9998238936866395,-55.42077213736587
6.468839424,0.9999332935468663,-55.524007424122914
6.471126528,1.0000473931018614,-55.6288944824218
6.473413632,1.0001587653899413,-55.73542060728105
6.475700224,1.0002603208810563,-55.84353573648609
6.477987328,1.0003455612294951,-55.953038871698546
6.480274432,1.0004089927917283,-56.06366890355241
6.482561536,1.0004466472215832,-56.17503411236933
6.48484864,1.0004561231952336,-56.286765623584785
6.487135744,1.0004368863321689,-56.39849084457696
6.489422336,1.0003897965373478,-56.509687538588
6.49170944,1.0003181631325728,-56.62009159950535
6.493996544,1.0002264524276712,-56.72932691638956
6.496283648,1.0001205686166,-56.83711569730451
6.498570752,1.0000069832444514,-56.943387237481396
6.500857856,0.9998931368297685,-57.04792510632817
6.503144448,0.9997865550797894,-57.150940618551644
6.505431552,0.9996935145260751,-57.25250967851988
6.507718656,0.999620472478614,-57.35287425107058
6.51000576,0.9995717348105331,-57.45236831368443
6.512292864,0.99955051119201,-57.55137595133665
6.514579968,0.9995584235133286,-57.65032588165613
6.51686656,0.9995947424447351,-57.749595622966226
6.519153664,0.9996571080850076,-57.84961950228227
6.521440768,0.9997418704788237,-57.950691675917874
6.523727872,0.9998432833813006,-58.05320036620245
6.526014976,0.9999551005336242,-58.15726299748502
6.52830208,1.0000700045111672,-58.262976943291314
6.530588672,1.0001808027233114,-58.37040636816504
6.532875776,1.0002805494138087,-58.479374507417084
6.53516288,1.0003624668101834,-58.589670426040506
6.537449984,1.0004217668515876,-58.70106074134628
6.539737088,1.0004543299682442,-58.8131032545246
6.542024192,1.0004582415422378,-58.92547983509679
6.544310784,1.000433157966053,-59.037666063569375
6.546597888,1.0003805720675505,-59.149354036461105
6.548884992,1.0003041734076217,-59.260092856103874
6.551172096,1.0002082944925679,-59.36961629019262
6.5534592,1.0000995446207055,-59.47766663968309
6.555746304,0.9999845595553852,-59.584092000198154
6.558033408,0.9998707782925581,-59.6889073946085
6.56032,0.9997654164471981,-59.792113141217115
6.562607104,0.9996751357331063,-59.8939250511871
6.564894208,0.9996059375805999,-59.9945769626707
6.567181312,0.9995620062421983,-60.09443663237475
6.569468416,0.9995462851327358,-60.19388909422588
6.57175552,0.9995599760899927,-60.29333256896085
6.574042112,0.9996017874097192,-60.39318611863594
6.576329216,0.99966951005957,-60.49386329011485
6.57861632,0.999758600960066,-60.59572869699364
6.580903424,0.9998634383280685,-60.69902618108476
6.583190528,0.9999771920799791,-60.80391891304418
6.585477632,1.0000928158652773,-60.91052020115282
6.587764224,1.0002029296186479,-61.01877121731142
6.590051328,1.0003002021186442,-61.12859667958339
6.592338432,1.0003788870344341,-61.239737208618926
6.594625536,1.000433515238126,-61.35180397911855
6.59691264,1.0004609083038292,-61.464528522194556
6.599199744,1.0004592342761132,-61.5774617268445
6.601486336,1.0004284457681638,-61.690167771227976
6.60377344,1.0003705897428936,-61.80224791447498
6.606060544,1.0002891830905438,-61.91337795694796
6.608347648,1.0001896874535365,-62.02313389077331
6.610634752,1.0000783157931818,-62.131439841141365
6.612921856,0.999962005502249,-62.238107944570814
6.615208448,0.9998484265330679,-62.34312218515259
6.617495552,0.9997446977452561,-62.44652385532178
6.619782656,0.9996574290769582,-62.54858620922318
6.62206976,0.9995922898429441,-62.649539486890305
6.624356864,0.9995533706580143,-62.749783382006626
6.626643968,0.999543224995066,-62.84964641813041
6.628931072,0.9995624941748559,-62.949592749126275
6.631217664,0.9996101043530565,-63.050082500638645
6.633504768,0.9996827047561232,-63.15143944043178
6.635791872,0.9997760359416445,-63.254050952211365
6.638078976,0.9998839204028426,-63.35811938941227
6.64036608,0.9999996759560629,-63.463910582139604
6.642653184,1.0001156028860065,-63.571331215581544
6.644939776,1.0002246170254634,-63.68044998294594
6.64722688,1.0003194985661532,-63.7910853196291
6.649513984,1.0003944059908083,-63.90297291941339
6.651801088,1.0004445185427795,-64.01578966760019
6.654088192,1.0004665043323846,-64.12915120476677
6.656375296,1.000459130787306,-64.24264715521244
6.658661888,1.0004225867874479,-64.35586486482191
6.660948992,1.0003593163976754,-64.46832804696771
6.663236096,1.0002734356088758,-64.57976327418984
6.6655232,1.0001703158528126,-64.6898582903687
6.667810304,1.0000564549938258,-64.7983806126264
6.670097408,0.9999394137242542,-64.90521072985335
6.672384,0.9998260909643332,-65.01040251084557
6.674671104,0.9997241887770842,-65.1140468549827
6.676958208,0.9996401322084942,-65.21635919676773
6.679245312,0.9995793650679644,-65.31760486291131
6.681532416,0.9995455804997039,-65.41820511901929
6.68381952,0.9995410671536207,-65.51853247974695
6.686106112,0.9995662056732586,-65.61904849875876
6.688393216,0.999619233905969,-65.72012015781227
6.69068032,0.9996968809627154,-65.82219669824543
6.692967424,0.9997940925875335,-65.92557094533113
6.695254528,0.9999049698623202,-66.030449650989
6.697541632,1.0000221294545037,-66.13703523012924
6.699828224,1.0001383440395823,-66.24533856739176
6.702115328,1.0002459421852927,-66.35530467487109
6.704402432,1.000338371181518,-66.4667257613847
6.706689536,1.0004092918429757,-66.57938267248919
6.70897664,1.0004544982016357,-66.69288411217457
6.711263744,1.000471088601586,-66.80690210938161
6.713550848,1.0004579201794404,-66.92091116144775
6.71583744,1.0004156334525323,-67.03458152889934
6.718124544,1.0003471420728773,-67.14746125055187
6.720411648,1.0002568933578486,-67.25920547955175
6.722698752,1.000150314714212,-67.36956560940385
6.724985856,1.0000344939191002,-67.47824370538537
6.72727296,0.9999165664410641,-67.58531178926495
6.729559552,0.9998040457524947,-67.69068863172917
6.731846656,0.9997043279871906,-67.79454920867889
6.73413376,0.9996237105091678,-67.8971242140835
6.736420864,0.9995673023019193,-67.99866897426566
6.738707968,0.9995388217434699,-68.09966740476632
6.740995072,0.9995400663504765,-68.2004168037444
6.743281664,0.9995707978048661,-68.30146619408168
6.745568768,0.9996293739362707,-68.40318790090815
6.747855872,0.9997117535914849,-68.5059564445664
6.750142976,0.9998130283776779,-68.61008502035016
6.75243008,0.9999266012032055,-68.71579500020798
6.754717184,1.0000449829855926,-68.82322942616322
6.757003776,1.000160970891246,-68.93238111618551
6.75929088,1.0002671307799182,-69.04315686556434
6.761577984,1.0003564426942346,-69.15540310364185
6.763865088,1.000423320400081,-69.26880767505064
6.766152192,1.0004635806030626,-69.3830157731942
6.768439296,1.0004746221516239,-69.49760032870465
6.770725888,1.0004555302427804,-69.6121800455992
6.773012992,1.0004078844894277,-69.72623508832393
6.775300096,1.0003343136803111,-69.83949563971193
6.7775872,1.0002394897371738,-69.95154317034616
6.779874304,1.0001299442346017,-70.0620746584105
6.782161408,1.0000120187784873,-70.17104942773817
6.784448512,0.9998936785358529,-70.27826501199483
6.786735104,0.9997822366617145,-70.38381984496229
6.789022208,0.9996848744791835,-70.48788425691635
6.791309312,0.9996079021284557,-70.59071993960326
6.793596416,0.9995562100700197,-70.6925967960591
6.79588352,0.9995330311350423,-70.79392640049103
6.798170624,0.9995400313228336,-70.89519909840939
6.800457216,0.9995766092212326,-70.9967989832636
6.80274432,0.9996403963387477,-71.09915050590779
6.805031424,0.9997276601859361,-71.20263137555607
6.807318528,0.9998325769659225,-71.30751417485735
6.809605632,0.9999484948762246,-71.414028192765
6.811892736,1.0000680704761225,-71.52228167459819
6.814179328,1.0001836453739035,-71.632269914158
6.816466432,1.0002878027163826,-71.74388470087325
6.818753536,1.000373973033312,-71.85693685044203
6.82104064,1.0004366445430017,-71.97107209041643
6.823327744,1.0004717776033776,-72.08595812118297
6.825614848,1.0004772166440876,-72.20111019104208
6.82790144,1.0004523433331547,-72.31618324296774
6.830188544,1.0003990079051939,-72.43069373214603
6.832475648,1.0003202545560417,-72.54428003354622
6.834762752,1.0002214347718354,-72.65658171535358
6.837049856,1.0001088096689668,-72.76738136753876
6.83933696,0.9999893880259343,-72.87646508891166
6.841623552,0.9998706988299717,-72.98389853146337
6.843910656,0.9997605480919767,-73.08964696720781
6.84619776,0.9996658188608452,-73.19390623631531
6.848484864,0.9995927448225822,-73.29696305433185
6.850771968,0.9995458360267139,-73.39918931896764
6.853059072,0.9995282594648882,-73.50094769012095
6.855345664,0.9995410346535489,-73.60265168602395
6.857632768,0.9995832956567321,-73.70483856793814
6.859919872,0.9996524523068189,-73.80781143064036
6.862206976,0.9997442294239139,-73.91198262475936
6.86449408,0.9998525731326964,-74.01764886778007
6.866781184,0.9999708123086152,-74.12497951237604
6.869068288,1.0000912574440204,-74.23408183153741
6.87135488,1.0002059614452212,-74.34492013656462
6.873641984,1.0003082029244181,-74.45732421241144
6.875929088,1.0003908987518462,-74.57114647525627
6.878216192,1.0004490270543187,-74.68598874126681
6.880503296,1.000478991637083,-74.80152089814797
6.8827904,1.0004786082213912,-74.91726220246028
6.885076992,1.0004480192776508,-75.03280147666764
6.887364096,1.00038907809633,-75.147704854166
6.8896512,1.0003056534175192,-75.26159519697059
6.891938304,1.0002028429322967,-75.37416365217163
6.894225408,1.000087291885918,-75.48515585169037
6.896512512,0.9999665406747862,-75.59445038750945
6.898799104,0.9998479603835536,-75.70201264242098
6.901086208,0.9997392601955767,-75.80795064019053
6.903373312,0.9996477062857428,-75.91240399432928
6.905660416,0.9995785211854255,-76.0157299547542
6.90794752,0.9995365505925767,-76.11826815133507
6.910234624,0.9995244693271502,-76.22041497091512
6.912521216,0.9995430314404397,-76.32265434526897
6.91480832,0.9995910140634949,-76.4253713666071
6.917095424,0.9996654202594809,-76.5290063827617
