freq,mag,phase
6.0,1.0000466717174674,148.83157305041414
6.002287104,1.0000663547704234,148.6844870413473
6.004574208,1.0000817466075884,148.5371704427631
6.006861312,1.0000921602253432,148.38968728919193
6.009147904,1.0000968076443992,148.24208999294714
6.011435008,1.000095607311995,148.09450027631402
6.013722112,1.0000886080051774,147.94698081321434
6.016009216,1.0000760916433973,147.7996233148536
6.01829632,1.0000590904943139,147.65249495460435
6.020583424,1.0000383731809026,147.50565435644327
6.022870016,1.0000155210755992,147.35915027807147
6.02515712,0.9999918706331585,147.21301558591688
6.027444224,0.9999688001989435,147.06720433773398
6.029731328,0.999948077088866,146.92176305910763
6.032018432,0.9999306623604668,146.77659096649805
6.034305536,0.9999180060617318,146.63167104603235
6.036592128,0.9999105815863805,146.4869048890481
6.038879232,0.9999091117043577,146.3422360356019
6.041166336,0.9999135376773939,146.19755341641206
6.04345344,0.9999235875418789,146.05276576702906
6.045740544,0.999938783185323,145.90784315466536
6.048027648,0.9999580079624557,145.76265176777366
6.05031424,0.9999801224086902,145.61720016345586
6.052601344,1.0000035595185068,145.47141724857772
6.054888448,1.0000270145550472,145.3253364119517
6.057175552,1.0000490364745185,145.17891810958935
6.059462656,1.000068187081006,145.03223467977358
6.06174976,1.0000831737649052,144.88529718601131
6.064036352,1.0000929609727183,144.73823096326277
6.066323456,1.0000972415555085,144.59105304321923
6.06861056,1.0000954619611795,144.44388783859208
6.070897664,1.000087846118787,144.2967956513364
6.073184768,1.0000748322283923,144.14987152554963
6.075471872,1.0000573844255949,144.00319117392831
6.077758464,1.0000363400649626,143.85680501815392
6.080045568,1.0000133027760365,143.7107669547477
6.082332672,0.9999895240313887,143.5650664143159
6.084619776,0.9999666183922225,143.4197344504057
6.08690688,0.9999460607505058,143.27473341754236
6.089193984,0.9999290704746518,143.1299896480405
6.091481088,0.999916780334506,142.98552853256487
6.09376768,0.9999099177803413,142.8411915702591
6.096054784,0.9999090193354709,142.69694422978844
6.098341888,0.9999140326784646,142.5526788543994
6.100628992,0.999924728173885,142.4083135804139
6.102916096,0.9999403161167305,142.26377548391827
6.1052032,0.999959930949721,142.11900886266946
6.107489792,0.9999822740997367,141.97392899476287
6.109776896,1.000005897775662,141.82853422831897
6.112064,1.0000293373198261,141.6828343336671
6.114351104,1.000051180106312,141.53680140495837
6.116638208,1.0000699642609707,141.39050909831593
6.118925312,1.0000845139167756,141.24398702182185
6.121211904,1.0000938781371371,141.09729666403405
6.123499008,1.000097480028047,140.95054761909276
6.125786112,1.0000950228420227,140.80377942555157
6.128073216,1.0000869226247207,140.6571050035904
6.13036032,1.000073353055164,140.5106314696228
6.132647424,1.0000555094263286,140.36437799396725
6.134934016,1.0000341414423737,140.21845891622553
6.13722112,1.000010877063814,140.07283173469077
6.139508224,0.9999871106136343,139.92760395435835
6.141795328,0.9999643247962491,139.78269679861396
6.144082432,0.9999439800273708,139.63815609538065
6.146369536,0.999927478859297,139.49386887069082
6.148656128,0.9999155827941323,139.34982999028273
6.150943232,0.999909410415285,139.20591702572065
6.153230336,0.9999090533968136,139.06208267505113
6.15551744,0.9999146775508454,138.91822859872326
6.157804544,0.999925843596617,138.77426617251191
6.160091648,0.9999418862979593,138.63011708416417
6.162378752,0.999961843451168,138.48572792381984
6.164665344,0.9999844654712486,138.3410433036833
6.166952448,1.0000082440148643,138.19603457842135
6.169239552,1.0000316540758254,138.05069405318505
6.171526656,1.0000532462710383,137.90504918682475
6.17381376,1.000071742909719,137.75913575828997
6.176100864,1.0000857795572384,137.61299382581456
6.178387456,1.000094606717677,137.4667045988253
6.18067456,1.0000976759237363,137.32035557922597
6.182961664,1.0000947438177112,137.17400907541557
6.185248768,1.0000859977494265,137.02776017948347
6.187535872,1.0000719448407278,136.88170346323773
6.189822976,1.000053560233168,136.7358943124604
6.192109568,1.000032061799168,136.59038829671036
6.194396672,1.0000085278197999,136.4452346545667
6.196683776,0.9999847690280368,136.30043882816162
6.19897088,0.9999621222991436,136.15598130136928
6.201257984,0.9999420167355338,136.01185774382358
6.203545088,0.9999258241853543,135.8680043257575
6.20583168,0.9999145597026547,135.7244089969858
6.208118784,0.9999087926660573,135.58091081220405
6.210405888,0.9999090551295532,135.43748926243305
6.212692992,0.9999152850624016,135.2940373782562
6.214980096,0.9999269758168976,135.1504506461539
6.2172672,0.9999436393498039,135.00668222933461
6.219553792,0.9999639955367279,134.8626776593381
6.221840896,0.9999867341533428,134.7183551587492
6.224128,1.0000106319290023,134.573723994248
6.226415104,1.00003396258441,134.42876827938863
6.228702208,1.0000553367562501,134.2834858452831
6.230989312,1.0000734722906481,134.13794865538046
6.233275904,1.000087092039038,133.99216996128385
6.235563008,1.0000954192258622,133.84629083333712
6.237850112,1.000097832712485,133.70031443581823
6.240137216,1.0000942862116338,133.55437241027676
6.24242432,1.0000849449903195,133.4085460148011
6.244711424,1.000070429398549,133.2629053476076
6.246998528,1.000051643349313,133.1175190229476
6.24928512,1.0000297251551267,132.9724663640774
6.251572224,1.0000062030045502,132.82772675944605
6.253859328,0.9999823350384807,132.68336928698028
6.256146432,0.999959831267847,132.53935130628338
6.258433536,0.9999400609121086,132.39564476888765
6.26072064,0.9999242658370275,132.2522293096071
6.263007232,0.9999134330824601,132.1090434240654
6.265294336,0.9999083838952277,131.9659434116946
6.26758144,0.9999092050273488,131.82291666145457
6.269868544,0.999915989330507,131.67986353747352
6.272155648,0.9999282785937157,131.5366631362648
6.274442752,0.9999452539644149,131.3932727745658
6.276729344,0.9999659360282879,131.2496486706964
6.279016448,0.9999890128812745,131.10567738244728
6.281303552,1.0000129790057692,130.96141815442493
6.283590656,1.000036226293339,130.81680305626708
6.28587776,1.0000574072314092,130.67189506726214
6.288164864,1.0000751770961114,130.52671525049465
6.290451456,1.0000883580175828,130.3813427995618
6.29273856,1.0000961115049414,130.2358166993877
6.295025664,1.0000980165208282,130.09023083869363
6.297312768,1.0000938264804817,129.94469193993908
6.299599872,1.0000839167217095,129.79927597903702
6.301886976,1.0000688481152193,129.65404082394218
6.304173568,1.000049672077803,129.50907412482283
6.306460672,1.0000274397905067,129.3644060117257
6.308747776,1.0000036991553525,129.22011869717423
6.31103488,0.9999799206471579,129.0761662593851
6.313321984,0.9999575704259616,128.93257884479362
6.315609088,0.9999382088854631,128.78931276855653
6.317896192,0.9999227991479052,128.64630923638
6.320182784,0.9999125384030972,128.50350417571315
6.322469888,0.9999079380561674,128.36082225649233
6.324756992,0.9999093992557759,128.21820705761422
6.327044096,0.9999167997016188,128.0755135300538
6.3293312,0.9999296311330436,127.9326885486137
6.331618304,0.9999470342836243,127.78966878642454
6.333904896,0.9999680991038267,127.64638023192838
6.336192,0.9999913865262627,127.50278080477128
6.338479104,1.0000153167951455,127.35887274974534
6.340766208,1.000038591137326,127.21461085117657
6.343053312,1.0000594241582164,127.07004758489995
6.345340416,1.000076915345011,126.92523432293905
6.347627008,1.0000895353849655,126.78021432694459
6.349914112,1.0000967823277642,126.63505819779553
6.352201216,1.0000980187743957,126.48986691587321
6.35448832,1.0000932260358273,126.34470999912253
6.356775424,1.00008277646545,126.19966542067455
6.359062528,1.0000672477175159,126.05484024272853
6.36134912,1.0000476694190126,125.91028016900489
6.363636224,1.000025215832717,125.76603783344109
6.365923328,1.0000013150820117,125.62216416328167
6.368210432,0.9999774291977596,125.47863788143846
6.370497536,0.9999553058929819,125.33547316100555
6.37278464,0.9999362269884744,125.19261197437524
6.375071232,0.999921314099925,125.05002474127906
6.377358336,0.9999115302831055,124.90759745163754
6.37964544,0.9999075779838653,124.76531926997575
6.381932544,0.9999095988391751,124.62306091586802
6.384219648,0.9999175570165414,124.48075493111978
6.386506752,0.9999309422654418,124.33829910686264
6.388793344,0.9999488539695367,124.19562336561009
6.391080448,0.9999702424673556,124.05269222763721
6.393367552,0.9999936987005154,123.90943843689712
6.395654656,1.0000177111597113,123.7658517174306
6.39794176,1.0000408194173793,123.6219436508781
6.400228864,1.0000615434828952,123.47774200812391
6.402515968,1.0000784824099258,123.33326235263034
6.40480256,1.0000907987526249,123.18860020997356
6.407089664,1.0000973678978553,123.04379549007355
6.409376768,1.0000979968800143,122.89897058486707
6.411663872,1.0000926675531632,122.7541958521773
6.413950976,1.0000815779961443,122.60954946552596
6.41623808,1.0000655248286283,122.46510762939361
6.418524672,1.000045500728921,122.32095962626946
6.420811776,1.0000228135857523,122.17712287611259
6.42309888,0.9999988189213631,122.03364597611557
6.425385984,0.999975061652886,121.89051897408952
6.427673088,0.999953069119496,121.74773751703462
6.429960192,0.9999343304275395,121.60530753175634
6.432246784,0.9999197783708135,121.46307909664172
6.434533888,0.9999105042482397,121.32108611311946
6.436820992,0.9999072128859948,121.17916871984627
6.439108096,0.9999099033665911,121.03727646089791
6.4413952,0.9999185232993048,120.89531319109251
6.443682304,0.9999324114234913,120.753215997037
6.445968896,0.9999507983088743,120.6108899236297
6.448256,0.999972483971178,120.46829032264098
6.450543104,0.9999961608801644,120.32538760372212
6.452830208,1.000020175654334,120.1821236226604
6.455117312,1.000043196600449,120.03853153294526
6.457404416,1.0000635620570082,119.89466620255658
6.459691008,1.0000801551671268,119.75053386889047
6.461978112,1.0000918550138904,119.60620893599264
6.464265216,1.0000978602475394,119.46176417573359
6.46655232,1.0000978936262859,119.31729180753564
6.468839424,1.0000919567625173,119.17288616954349
6.471126528,1.00008033564652,119.02861640241362
6.473413632,1.0000637897425524,118.88455986358343
6.475700224,1.0000433403417255,118.7407876499032
6.477987328,1.0000204432998083,118.59736138665329
6.480274432,0.9999963184398609,118.45427674417272
6.482561536,0.9999726970840802,118.3115628312905
6.48484864,0.999950875977339,118.16918933179501
6.487135744,0.9999324520858549,118.02710027161613
6.489422336,0.9999184122411728,117.88529029701282
6.49170944,0.9999096782206988,117.74364469841466
6.493996544,0.9999069445326809,117.60211065353555
6.496283648,0.9999102711208976,117.46057215254234
6.498570752,0.999919417223935,117.31896693097542
6.500857856,0.9999339746325645,117.17720520735574
6.503144448,0.9999527398301535,117.03521110470298
6.505431552,0.9999747637658345,116.89292020859276
6.507718656,0.9999985254319981,116.7503226585045
6.51000576,1.0000227055455928,116.60740007577911
6.512292864,1.000045468091554,116.46414243048957
6.514579968,1.0000655890364154,116.3205784839969
6.51686656,1.0000817813270457,116.17677595961256
6.519153664,1.0000928424986901,116.03278201589261
6.521440768,1.0000984492457108,115.88866966454516
6.523727872,1.0000978391275344,115.7445632944952
6.526014976,1.0000912260100412,115.60050075197236
6.52830208,1.0000790395975199,115.45661037426567
6.530588672,1.000062003936241,115.31292339066276
6.532875776,1.0000411539421594,115.16954217521575
6.53516288,1.0000179833619367,115.02649100533398
6.537449984,0.9999937943130157,114.88379624498752
6.539737088,0.9999702303069287,114.74143827921257
6.542024192,0.9999487188752314,114.59945302627231
6.544310784,0.9999305921676921,114.45776699280859
6.546597888,0.9999170444639331,114.31631321959723
6.548884992,0.9999088533468525,114.1750458031182
6.551172096,0.9999067125114915,114.0338655359958
6.5534592,0.9999106551366806,113.89267026399803
6.555746304,0.9999204997685628,113.7513954336091
6.558033408,0.9999353716741722,113.60994372138191
6.56032,0.999954745422142,113.46826117590976
6.562607104,0.9999769471602119,113.32630356574721
6.564894208,1.0000009448148677,113.18403244572764
6.567181312,1.0000250596674392,113.04140800581091
6.569468416,1.0000477660702345,112.89846193406804
6.57175552,1.0000675737138978,112.75521293914025
6.574042112,1.0000833190700198,112.6117153724511
6.576329216,1.0000939201585313,112.4680355185384
6.57861632,1.0000988547367655,112.32428279462263
6.580903424,1.0000976064405336,112.18049749212094
6.583190528,1.0000904422181263,112.03678599679058
6.585477632,1.0000776318250304,111.89323962875142
6.587764224,1.0000601153627766,111.74992866588836
6.590051328,1.0000390311302978,111.60691732396157
6.592338432,1.0000155326120002,111.46422769242395
6.594625536,0.9999913097408354,111.32189611460537
6.59691264,0.9999677949759683,111.17994168219143
6.599199744,0.9999464645790047,111.03832473034619
6.601486336,0.9999287379613317,110.89699686606832
6.60377344,0.999915669245903,110.75590218290546
6.606060544,0.9999081477745337,110.61497818624906
6.608347648,0.999906684356343,110.4741128844018
6.610634752,0.9999112152572807,110.33326000298061
6.612921856,0.9999215280174472,110.19230921784603
6.615208448,0.9999370684378602,110.05118309035149
6.617495552,0.9999568422033036,109.90982237102823
6.619782656,0.9999793732821081,109.76813928228074
6.62206976,1.000003458673145,109.62615778752702
6.624356864,1.0000275167065704,109.48382000171976
6.626643968,1.0000500284311988,109.34118913108708
6.628931072,1.0000696298569849,109.19823016995008
6.631217664,1.0000848943672707,109.05504235270153
6.633504768,1.0000949757730935,108.91168707017191
6.635791872,1.0000991416577873,108.76824622634591
6.638078976,1.0000973514297407,108.62479305952645
6.64036608,1.0000894856110123,108.48141104137768
6.642653184,1.0000761631887272,108.33820524791787
6.644939776,1.0000581746208064,108.19525956901579
6.64722688,1.0000367669541974,108.05257593026795
6.649513984,1.000013030273388,107.9102514009189
6.651801088,0.9999887138563107,107.76830314197045
6.654088192,0.9999653590896519,107.62670109529645
6.656375296,0.9999443178806215,107.48543750467712
6.658661888,0.999926970382638,107.34445302473173
6.660948992,0.9999144318984865,107.20371900103397
6.663236096,0.9999074250449347,107.06312151531547
6.6655232,0.9999065755165348,106.9225955003536
6.667810304,0.9999117064467473,106.78206355206349
6.670097408,0.9999227147833214,106.64142396704668
6.672384,0.99993872345456,106.50059020981504
6.674671104,0.9999588027441462,106.35952266888661
6.676958208,0.9999817646230932,106.21814117371207
6.679245312,1.000005971116574,106.07643296714583
6.681532416,1.0000300240383997,105.93439467939781
6.68381952,1.0000523457396486,105.79202328029787
6.686106112,1.0000715349192657,105.6493634279117
6.688393216,1.0000863451928081,105.50646700517628
6.69068032,1.0000958795009531,105.36339545596562
6.692967424,1.0000995534493289,105.22026481118338
6.695254528,1.0000970010871033,105.07712341006142
6.697541632,1.000088542769078,104.93407590844075
6.699828224,1.0000746499866717,104.79121045539188
6.702115328,1.0000561845969849,104.64858293013869
6.704402432,1.0000343562627423,104.50627440045083
6.706689536,1.0000105340279772,104.3642953544495
6.70897664,0.9999862306864938,104.22267609895879
6.711263744,0.9999629352730882,104.08141551120431
6.713550848,0.999942137474848,103.94049924030489
6.71583744,0.9999252025948779,103.79986985049001
6.718124544,0.9999131001856021,103.65944732999198
6.720411648,0.9999068231310281,103.5191836968485
6.722698752,0.9999065417248529,103.37899370259191
6.724985856,0.9999124478527689,103.23874912418741
6.72727296,0.9999239975615087,103.0984064739548
6.729559552,0.9999404306627333,102.95786621283307
6.731846656,0.9999609753067067,102.81706728791879
6.73413376,0.99998423719076,102.67595812583697
6.736420864,1.000008569304363,102.53451331697467
6.738707968,1.0000325223836424,102.39272506114938
6.740995072,1.0000545755742674,102.25064591374894
6.743281664,1.0000734026558744,102.10825169869439
6.745568768,1.0000877461085402,101.96565020441817
6.747855872,1.0000967518536452,101.82286404353017
6.750142976,1.0000998190451182,101.68002037424397
6.75243008,1.0000966712715817,101.53718966479333
6.754717184,1.0000875022079576,101.39445842231618
6.757003776,1.000073089651733,101.25189338060976
6.75929088,1.0000541504266827,101.10960056246256
6.761577984,1.0000320092280421,100.96762032778946
6.763865088,1.0000079584413961,100.82598626131634
6.766152192,0.999983595130435,100.6846980632368
6.768439296,0.9999604469436646,100.54379096192335
6.770725888,0.9999400057740274,100.40319720244808
6.773012992,0.9999234015848,100.26288498818553
6.775300096,0.9999119742414253,100.12279158003588
6.7775872,0.999906253790061,99.98282425440716
6.779874304,0.9999065357865775,99.8429277407798
6.782161408,0.9999130796394617,99.70299107876359
6.784448512,0.9999252432360591,99.5629192742118
6.786735104,0.9999423686670467,99.42264757994414
6.789022208,0.9999632210517697,99.28211639407816
6.791309312,0.9999866723171985,99.14125675330062
6.793596416,1.0000111121055804,99.00008220875316
6.79588352,1.000034944723059,98.85856722330733
6.798170624,1.0000568551155382,98.71672092507968
6.800457216,1.0000753097829518,98.57458377121857
6.80274432,1.000089215976652,98.43225193514708
6.805031424,1.0000975282196436,98.28975139427523
6.807318528,1.0000999048998718,98.14719829285009
6.809605632,1.0000961825143293,98.00464231216442
6.811892736,1.0000864616761205,97.86219637478271
6.814179328,1.0000714358012495,97.71997818453961
6.816466432,1.0000520717826438,97.57797356485874
6.818753536,1.000029575412037,97.43632555444806
6.82104064,1.0000053768831971,97.29499359652353
6.823327744,0.9999809678528713,97.15404512574952
6.825614848,0.9999579759340217,97.01344932853279
6.82790144,0.9999378080730601,96.87318303738424
6.830188544,0.9999217652135863,96.73317045983616
6.832475648,0.9999108401289533,96.59338550617029
6.834762752,0.9999057201898879,96.45373676809803
6.837049856,0.9999068116972398,96.31410374916113
6.83933696,0.9999138386123175,96.17443839016315
6.841623552,0.9999266123940278,96.03463791000934
6.843910656,0.9999442059730381,95.89461205910753
6.84619776,0.9999655271619989,95.75433762549245
6.848484864,0.9999891009778498,95.6137397741231
6.850771968,1.000013665131779,95.47279063539776
6.853059072,1.0000374768235567,95.33153109909688
6.855345664,1.0000591277741988,95.18991440949964
6.857632768,1.0000771927498628,95.04803196897444
6.859919872,1.0000905564348377,94.9059521789639
6.862206976,1.000098288939688,94.7637140037016
6.86449408,1.0001000829958642,94.62142060988045
6.866781184,1.0000956289969178,94.47914279591443
6.869068288,1.0000853261940343,94.33699941685038
6.87135488,1.0000698431643897,94.195056126159
6.873641984,1.0000499515954997,94.05337508165712
6.875929088,1.000027103992964,93.91199778802532
6.878216192,1.0000027813458934,93.77099768536495
6.880503296,0.9999784737658458,93.63036087389244
6.8827904,0.9999556038396197,93.4900647130751
6.885076992,0.9999356704326575,93.35009974307012
6.887364096,0.9999201150850683,93.21039703557597
6.8896512,0.9999097986033599,93.07089307055182
6.891938304,0.9999052838734299,92.93151310493927
6.894225408,0.9999068874538909,92.7921586444026
6.896512512,0.9999147249803261,92.65275716903494
6.898799104,0.9999280625015923,92.51320121893485
6.901086208,0.9999461590893112,92.37343020831435
6.903373312,0.9999677979922488,92.23336970365919
6.905660416,0.9999917025064158,92.09301736794743
6.90794752,1.0000161945486767,91.95229596607392
6.910234624,1.0000399751517417,91.81124965594907
6.912521216,1.000061302686374,91.66988691287591
6.91480832,1.0000789849261207,91.52824564735845
6.917095424,1.0000918856778496,91.38637013905567
6.919382528,1.0000990752425885,91.2443973443809
6.921669632,1.0001001576767603,91.10234896306432
6.923956736,1.0000950605883159,90.96034721841913
6.926243328,1.0000840354887084,90.81846475541982
