freq,mag,phase
6.0,0.9995108919334047,-14.223560305445805
6.010322432,0.999372397528286,-14.565626064618312
6.020645376,0.9992665344326895,-14.906198672195435
6.030967808,0.9991981806943572,-15.245707763191716
6.04129024,0.9991706842043201,-15.584681849847883
6.051612672,0.9991853664783165,-15.923640819228346
6.061935616,0.9992414964253141,-16.26311931171241
6.072258048,0.9993365711513755,-16.603638772570346
6.08258048,0.9994656397825572,-16.9457132563911
6.092903424,0.9996222062935244,-17.289663989847917
6.103225856,0.9997983152612276,-17.635903916315144
6.113548288,0.9999853113767386,-17.984568046941522
6.12387072,1.000173666897993,-18.33569559488544
6.134193664,1.0003536313448662,-18.68930835409512
6.144516096,1.0005166109197186,-19.045244831185755
6.154838528,1.0006538805131133,-19.403202365316993
6.165161472,1.0007587658665975,-19.76276531482372
6.175483904,1.0008259678055924,-20.123594008987254
6.185806336,1.0008517988202688,-20.48506261476925
6.19612928,1.0008350044634726,-20.846720200022197
6.206451712,1.0007765777155062,-21.20793336127116
6.216774144,1.0006790041373925,-21.568204777962524
6.227096576,1.0005476650876084,-21.927139514445674
6.23741952,1.000388793177119,-22.28428970040783
6.247741952,1.0002103243354095,-22.639290911951335
6.258064384,1.0000214360012099,-22.99203475637513
6.268387328,0.9998313194877669,-23.342390157186934
6.27870976,0.9996501607223676,-23.690400601186607
6.289032192,0.9994865857098129,-24.03627755118271
6.299354624,0.9993491312272549,-24.380255089677476
6.309677568,0.9992446524353319,-24.72279071915851
6.32,0.9991786539878403,-25.064247675939264
6.330322432,0.9991543498948917,-25.405195943717686
6.340645376,0.9991732748001447,-25.746216304863818
6.350967808,0.9992341589248305,-26.087801752442292
6.36129024,0.9993341970283882,-26.430513780457513
6.371612672,0.999468581279457,-26.774813921037875
6.381935616,0.9996301851036576,-27.121075128659843
6.392258048,0.9998111027362886,-27.469679314651934
6.40258048,1.0000019420328254,-27.820795249126846
6.412903424,1.0001936191543899,-28.174441270556624
6.423225856,1.0003759737157132,-28.530583996690485
6.433548288,1.0005398805173062,-28.889059186015093
6.44387072,1.0006772667612724,-29.24953788149996
6.454193664,1.0007809416334026,-29.611717503803433
6.464516096,1.000845748684814,-29.975071671261194
6.474838528,1.0008682507667157,-30.33904439967438
6.485161472,1.000847417558629,-30.70314157647643
6.495483904,1.0007842489179393,-31.066774902007662
6.505806336,1.0006817321854222,-31.429435381360285
6.51612928,1.0005450173000467,-31.79063650797825
6.526451712,1.0003808093112319,-32.149968743190016
6.536774144,1.000197639690903,-32.50716121653522
6.547096576,1.0000046081896268,-32.86201012253572
6.55741952,0.9998113690539111,-33.21441664572657
6.567741952,0.9996277093794942,-33.564474275349376
6.578064384,0.9994629204885488,-33.912357265074974
6.588387328,0.9993253708397363,-34.25836092416705
6.59870976,0.9992221435514501,-34.60284983626577
6.609032192,0.9991583547569796,-34.94636830083488
6.619354624,0.9991371771728115,-35.28939544547295
6.629677568,0.9991601857282122,-35.6325138388601
6.64,0.9992257496898582,-35.97625754505126
6.650322432,0.9993311327649207,-36.321248665395984
6.660645376,0.9994707379620204,-36.66785438465604
6.670967808,0.9996374932988884,-37.01656303273447
6.68129024,0.9998232725054318,-37.367580017510306
6.691612672,1.0000185174880585,-37.721198612703496
6.701935616,1.000213379069295,-38.07740655885656
6.712258048,1.0003982460815062,-38.43617372469539
6.72258048,1.0005635666114656,-38.79729313054364
6.732903424,1.0007009589238653,-39.1604610945769
6.743225856,1.0008036635084416,-39.52527320760773
6.753548288,1.0008662443232097,-39.89121044987119
6.76387072,1.0008856653470395,-40.25780905825764
6.774193664,1.0008607211967389,-40.624469226302764
6.784516096,1.0007928420413068,-40.990592748420255
6.794838528,1.0006850795390114,-41.355692475174884
6.805161472,1.0005429942724244,-41.71928286329579
6.815483904,1.0003736336675275,-42.08093735464145
6.825806336,1.000185537996315,-42.440379676203634
6.83612928,0.9999880811524092,-42.79739979639629
6.846451712,0.9997912891208767,-43.15194881307101
6.856774144,0.9996050546940598,-43.504119862549956
6.867096576,0.9994387387755258,-43.85407081606452
6.87741952,0.9993009232398986,-44.202155781141826
6.887741952,0.9991986998203601,-44.54873787811033
6.898064384,0.9991368695463719,-44.89437316920263
6.908387328,0.9991190772153661,-45.23951716451008
6.91870976,0.999146039835887,-45.58481306117477
6.929032192,0.9992164997517947,-45.930834857478594
6.939354624,0.99932699291858,-46.278127283422606
6.949677568,0.9994719532972448,-46.627107950444305
6.96,0.9996441900634739,-46.97827318379591
6.970322432,0.9998349262109766,-47.33183837575348
6.980645376,1.0000345741115355,-47.68804831564168
6.990967808,1.0002332787266188,-48.04688474528729
7.00129024,1.000420759793657,-48.40834076404738
7.011612672,1.0005877079045247,-48.77216505236965
7.021935616,1.0007254129514516,-49.1380792654814
7.032258048,1.000827321345089,-49.505602880309894
7.04258048,1.0008879067163647,-49.874308451524435
7.052903424,1.0009041714911755,-50.24357906562891
7.063225856,1.0008753183701455,-50.61287125132008
7.073548288,1.0008026137459456,-50.9816144205348
7.08387072,1.0006895213591211,-51.34923962575037
7.094193664,1.000541931789822,-51.71528532376297
7.104516096,1.0003671810748538,-52.079341686914084
7.114838528,1.0001738736902592,-52.44108590421247
7.125161472,0.9999718520288089,-52.80040485335385
7.135483904,0.9997713014324896,-53.15719161653743
7.145806336,0.999582255141668,-53.5115277172781
7.15612928,0.9994142019994814,-53.863641754833594
7.166451712,0.9992758880750404,-54.21385700957778
7.176774144,0.9991742743764624,-54.56259868553605
7.187096576,0.9991144907720911,-54.91036387251083
7.19741952,0.999099701903656,-55.25769712692415
7.207741952,0.9991306356517514,-55.60527790870619
7.218064384,0.9992059227275378,-55.95359682449577
7.228387328,0.9993216336320104,-56.30324939668494
7.23870976,0.9994721043722901,-56.65469948094203
7.249032192,0.9996499455015498,-57.00833838522617
7.259354624,0.999845951553517,-57.36453086690364
7.269677568,1.0000503655325093,-57.72336200550679
7.28,1.000252872771578,-58.08497398423998
7.290322432,1.000443407453272,-58.449162088420806
7.300645376,1.0006121208727619,-58.81580754738686
7.310967808,1.0007505831919516,-59.18451945327613
7.32129024,1.000851831117748,-59.55484127434753
7.331612672,1.0009105821947824,-59.9263314830207
7.341935616,1.0009238861529113,-60.298384917185864
7.352258048,1.0008909793716685,-60.67042808753359
7.36258048,1.0008134950200285,-61.0418310526954
7.372903424,1.0006951707355716,-61.41208669935469
7.383225856,1.0005419713677193,-61.7806782283248
7.393548288,1.0003615452094436,-62.14719922911653
7.40387072,1.0001627703454155,-62.51140036698798
7.414193664,0.999955929177824,-62.87302077835991
7.424516096,0.999751181135976,-63.23211834555846
7.434838528,0.9995589915467037,-63.588703617162835
7.445161472,0.9993890729789054,-63.943016654292826
7.455483904,0.9992499960041985,-64.2954405525487
7.465806336,0.9991487151226766,-64.64637904768776
7.47612928,0.999090730894011,-64.9963785589792
7.486451712,0.9990788532912573,-65.3459589520869
7.496774144,0.9991138457711121,-65.69581716935762
7.507096576,0.9991937451225725,-66.0464930323782
7.51741952,0.9993149887442395,-66.39853119025199
7.527741952,0.9994712483245964,-66.7525016049142
7.538064384,0.9996547774437904,-67.10872710104834
7.548387328,0.9998564412864115,-67.46754909983021
7.55870976,1.000065985618698,-67.82909487111361
7.569032192,1.000272592393593,-68.19345928059752
7.579354624,1.0004664283756162,-68.56048663325777
7.589677568,1.0006373084472697,-68.92998456516266
7.6,1.0007766780011305,-69.30157501455659
7.610322432,1.0008774326623877,-69.67481003386693
7.620645376,1.0009345951538993,-70.04917493005401
7.630967808,1.0009450768258772,-70.42407461792483
7.64129024,1.0009082143440138,-70.79894071227955
7.651612672,1.0008259206159533,-71.17309756581935
7.661935616,1.0007021132282157,-71.54603854659108
7.672258048,1.0005430892897393,-71.91727443160404
7.68258048,1.0003567967602844,-72.28633838095838
7.692903424,1.00015247988611,-72.65302285191353
7.703225856,0.9999402401605049,-73.01706709412834
7.713548288,0.9997311148692504,-73.37849430910344
7.72387072,0.999535482807479,-73.7373941844612
7.734193664,0.9993631467639751,-74.09401571854976
7.744516096,0.9992229645858843,-74.44863359524784
7.754838528,0.9991221305437767,-74.80184858953696
7.765161472,0.9990656931436883,-75.15406618332246
7.775483904,0.9990565929466441,-75.50598798451134
7.785806336,0.9990953597054323,-75.85816099876828
7.79612928,0.9991802898998122,-76.2112081440349
7.806451712,0.9993068869119125,-76.56574128383276
7.816774144,0.9994690236554228,-76.92221423453573
7.827096576,0.9996585152845325,-77.2810440834797
7.83741952,0.999865953437017,-77.64255153573632
7.847741952,1.0000807786588817,-78.00688041869768
7.858064384,1.0002922523321502,-78.3740408837134
7.868387328,1.0004895548935246,-78.74398188026686
7.87870976,1.000662962755489,-79.11639221508078
7.889032192,1.0008035085631866,-79.4909434258822
7.899354624,1.0009043505451278,-79.86713532702827
7.909677568,1.0009599088761345,-80.24444376881617
7.92,1.0009675875058202,-80.62230066900793
7.930322432,1.0009269183964857,-81.00001568126068
7.940645376,1.0008397819657806,-81.37702523791579
7.950967808,1.0007104918115548,-81.752740248042
7.96129024,1.0005454643139016,-82.12664792335501
7.971612672,1.0003530232338065,-82.49833494589073
7.981935616,1.0001425707260723,-82.86758924137555
7.992258048,0.9999250649269207,-83.2341090915428
8.00258048,0.9997110331273898,-83.59791066288857
8.012903424,0.9995115338867634,-83.95916649936497
8.023225856,0.9993365106055886,-84.31806630396743
8.033548288,0.9991950138431196,-84.67502161723692
8.04387072,0.9990940541941028,-85.03047913846471
8.054193664,0.9990389539820618,-85.38502893839228
8.064516096,0.9990325241336004,-85.73922712486923
8.074838528,0.9990751981324899,-86.09377433190843
8.085161472,0.9991649733753294,-86.44926097971573
8.095483904,0.9992972192725954,-86.80624801022991
8.105806336,0.999465557903384,-87.16527202508972
8.11612928,0.9996613150710193,-87.52676986233978
8.126451712,0.999874899451397,-87.89098849458348
8.136774144,1.000095452253977,-88.25811121611852
8.147096576,1.0003118591995195,-88.62817499195464
8.15741952,1.000513278107779,-89.00101462294052
8.167741952,1.0006895254362624,-89.37641936374658
8.178064384,1.000831771349061,-89.75396686917419
8.188387328,1.0009325365561084,-90.13318229885998
8.19870976,1.0009869637187556,-90.51351960293795
8.209032192,1.0009921756334883,-90.89436278186096
8.219354624,1.0009475926881772,-91.27503323121684
8.229677568,1.000855672076497,-91.65490768310244
8.24,1.0007206615845312,-92.03346590739953
8.250322432,1.000549409574211,-92.41016774957266
8.260645376,1.0003506019287975,-92.78454129594104
8.270967808,1.0001338999407805,-93.15635279685462
8.28129024,0.9999102334782591,-93.52541275719621
8.291612672,0.9996910455175105,-93.8917166021244
8.301935616,0.9994872427767344,-94.2553347390317
8.312258048,0.9993091921080827,-94.6165909255061
8.32258048,0.9991658232209593,-94.97585189514731
8.332903424,0.9990645689648329,-95.33362508117102
8.343225856,0.9990106601356161,-95.69045559450446
8.353548288,0.9990067335258245,-96.04699846885353
8.36387072,0.9990531570734212,-96.40391317898633
8.374193664,0.999147800286308,-96.76181284896656
8.384516096,0.9992857917502505,-97.12130601260894
8.394838528,0.9994604804908531,-97.4829228103845
8.405161472,0.9996629742953095,-97.84706871361414
8.415483904,0.9998830609046001,-98.21401520943957
8.425806336,1.0001097454942052,-98.58399802043269
8.43612928,1.0003316399593205,-98.95695176423153
8.446451712,1.0005375598565054,-99.33275933940419
8.456774144,1.0007172555246966,-99.71118467518133
8.467096576,1.0008613091646328,-100.09180400154133
8.47741952,1.0009626682875485,-100.47410237080618
8.487741952,1.001016150244246,-100.85748418713904
8.498064384,1.001018734591965,-101.24136881182321
8.508387328,1.00097050487838,-101.62505729217453
8.51870976,1.000873651696346,-102.00793592248354
8.529032192,1.0007327831422184,-102.3893643901771
8.539354624,1.0005551872732732,-102.76884816670075
8.549677568,1.0003494280525098,-103.14598210499119
8.56,1.0001260175384707,-103.52044823605695
8.570322432,0.9998960025086633,-103.8920699640659
8.580645376,0.9996709341219456,-104.26084037888566
8.590967808,0.9994624021427045,-104.62690550944146
8.601290752,0.9992808450640069,-104.99051536845973
8.611612672,0.9991352801827007,-105.35211228729646
8.621935616,0.9990333022362939,-105.71219798228928
8.63225856,0.9989801922643675,-106.07134978836984
8.64258048,0.9989785916458243,-106.43022575220856
8.652903424,0.9990288758786086,-106.78947793633066
8.663225344,0.9991283475015685,-107.14983863716385
8.673548288,0.9992723485271605,-107.51181982222168
8.683871232,0.9994535899501682,-107.8760197149626
8.694193152,0.9996630485140652,-108.24282744281356
8.704516096,0.9998901025968704,-108.61254443003371
8.71483904,1.0001235904011236,-108.98536238147292
8.72516096,1.000351355093969,-109.36124970148764
8.735483904,1.0005623971983941,-109.74005583916205
8.745806848,1.000745770822497,-110.12150753156308
8.756128768,1.000892315474808,-110.50522310247104
8.766451712,1.0009944911582855,-110.89064730087306
8.776774656,1.0010472572899523,-111.27716518765402
8.787096576,1.0010476517324904,-111.6641624157901
8.79741952,1.0009956202853183,-112.05092034313324
8.80774144,1.000893792849815,-112.43681105112104
8.818064384,1.000746896125301,-112.82118666234884
8.828387328,1.0005625322785305,-113.20355782554196
8.838709248,1.0003497187454797,-113.58345179919506
8.849032192,1.0001189592286948,-113.96059316935683
8.859355136,0.9998820322482095,-114.33480110975464
8.869677056,0.9996508547326074,-114.70609969025922
8.88,0.9994368633991959,-115.07458706769283
8.890322944,0.9992511034780437,-115.44058512340969
8.900644864,0.9991029907192779,-115.8044943900152
8.910967808,0.9990000135419088,-116.16688127796837
8.921290752,0.9989474141181433,-116.52833497698295
8.931612672,0.9989480205679447,-116.88952666396607
8.941935616,0.9990018821010105,-117.2511605719737
8.95225856,0.9991065447366015,-117.61390373317627
8.96258048,0.9992566717443128,-117.97838794260568
8.972903424,0.9994448068484748,-118.3451540517761
8.983225344,0.9996615811952044,-118.71461886131918
8.993548288,0.9998961718572255,-119.0871052777885
9.003871232,1.0001368184650123,-119.46275061104406
9.014193152,1.000371264067572,-119.84157759440497
9.024516096,1.000587914864061,-120.22341342157101
9.03483904,1.0007756544368678,-120.60797657068312
9.04516096,1.0009250496219528,-120.994812392133
9.055483904,1.00102856660988,-121.38336653345333
9.065806848,1.0010808165937188,-121.77306829507548
9.076128768,1.0010792093375256,-122.16320116861786
9.086451712,1.0010235326490091,-122.5530828942096
9.096774656,1.000916588692258,-122.94203313860314
9.107096576,1.0007635444722074,-123.32942825213124
9.11741952,1.000572051529145,-123.71467247129894
9.12774144,1.0003514809523044,-124.09737579577126
9.138064384,1.0001131040346927,-124.4772284345162
9.148387328,0.999868727616469,-124.85405391249505
9.158709248,0.999630503296021,-125.22785715072791
9.169032192,0.9994106970507055,-125.59880883859229
9.179355136,0.9992202594235866,-125.96716574598427
9.189677056,0.9990688775118451,-126.33341782832207
9.2,0.9989644024429154,-126.69808226732613
9.210322944,0.9989119774365582,-127.0618097284121
9.220644864,0.9989145744835387,-127.42530017717476
9.230967808,0.9989722036831088,-127.78923502951875
9.241290752,0.9990818978850324,-128.15438709837707
9.251612672,0.9992384125899544,-128.5212993162324
9.261935616,0.999433851994038,-128.89060355815806
9.27225856,0.9996585499178248,-129.26272200610904
9.28258048,0.9999011858509694,-129.6379353481453
9.292903424,1.000149592585532,-130.01644182700352
9.303225344,1.0003913430229279,-130.3982073857741
9.313548288,1.0006141530426151,-130.78307090191092
9.323871232,1.0008068882164713,-131.1707171825104
9.334193152,1.0009597758639786,-131.5607003724711
9.344516096,1.0010650358371724,-131.95248708735127
9.35483904,1.0011172268465542,-132.3453664903286
9.36516096,1.001113758527066,-132.73870019338375
9.375483904,1.0010544555675918,-133.13171235398633
9.385806848,1.0009423242475484,-133.52374852281437
9.396128768,1.0007828135054082,-133.91417612529858
9.406451712,1.0005838360131358,-134.3023598238263
9.416774656,1.0003552848338089,-134.6879144380195
9.427096576,1.0001084249353032,-135.07048869814682
9.43741952,0.9998557775740392,-135.44994631918024
9.44774144,0.9996100918511825,-135.82627560853535
9.458064384,0.9993835597616273,-136.19965097695274
9.468387328,0.9991878056949561,-136.57035736721798
9.478709248,0.9990327132163056,-136.9389078453244
9.489032192,0.9989261428964464,-137.30582074177008
9.499355136,0.9988737251791169,-137.67177899201081
9.509677056,0.9988781101262988,-138.037498822597
9.52,0.9989392445550058,-138.4037390963221
9.530322944,0.9990542473221551,-138.7712122285802
9.540644864,0.9992173492463488,-139.14056042242515
9.550967808,0.9994205993346182,-139.51234804151403
9.561290752,0.9996537005959484,-139.88706894244382
9.571612672,0.9999049682057913,-140.2650077711764
9.581935616,1.000162029291886,-140.64632604033275
9.59225856,1.00041166920535,-141.03102091786906
9.60258048,1.0006415546805085,-141.41890612863685
9.612903424,1.0008399670629309,-141.809660534396
9.623225344,1.0009969419507345,-142.20282572266757
9.633548288,1.0011044894587335,-142.59779057865344
9.643871232,1.0011569642889675,-142.99392715076203
9.654193152,1.0011518136600508,-143.3904693305035
9.664516096,1.001088936221703,-143.7866647409673
9.67483904,1.0009715265760948,-144.18185418961832
9.68516096,1.0008052195902584,-144.57531421471222
9.695483904,1.0005983268882381,-144.96647923738777
9.705806848,1.0003609606349164,-145.35488485454803
9.716128768,1.0001051623714727,-145.74019552333723
9.726451712,0.9998435946435813,-146.12227084827933
9.736774656,0.9995894288886523,-146.50112319268808
9.747096576,0.9993554937633036,-146.8768940959316
9.75741952,0.9991537020132698,-147.24994520720955
9.76774144,0.9989941143027832,-147.62072064827592
9.778064384,0.9988850317792388,-147.98983705386067
9.788387328,0.9988320642333481,-148.3579743291479
9.798709248,0.9988380426060471,-148.7258923253057
9.809032192,0.9989027159230812,-149.09435613131504
9.819355136,0.999023147197599,-149.46408342281265
9.829677056,0.9991932266979288,-149.83578140998998
9.84,0.9994045801121494,-150.21002713157912
9.850322944,0.9996466834108382,-150.58728785816604
9.860644864,0.9999075046099062,-150.96789526195963
9.870967808,1.0001738346289022,-151.3520131407208
9.881290752,1.0004323552793197,-151.7396241427417
9.891612672,1.0006700771553165,-152.1305223498241
9.901935616,1.0008749707083284,-152.52439336506492
9.91225856,1.001036573917105,-152.92071396953185
9.92258048,1.001146956630473,-153.31891258225914
9.932903424,1.0012001952605618,-153.71828934928448
9.943225344,1.001193594981452,-154.11808401433544
9.953548288,1.001127196078611,-154.5175150083649
9.963871232,1.0010042976983535,-154.91584408955296
9.974193152,1.0008309234428432,-155.31236553806002
9.984516096,1.000615518591956,-155.70652457358798
9.99483904,1.0003688216014912,-156.09778140624798
10.00516096,1.0001031154590545,-156.4858444066172
10.015483904,0.9998317552045836,-156.87055173198596
10.025806848,0.9995683763724581,-157.25187456961095
10.036128768,0.9993260331691647,-157.63001307940146
10.046451712,0.999117262420348,-158.00532643155145
10.056774656,0.9989525710849643,-158.3783070104618
10.067096576,0.9988403209722554,-158.74955645413513
10.07741952,0.9987864225379088,-159.11981653627876
10.08774144,0.9987936731142554,-159.48983369264823
10.098064384,0.9988619154934915,-159.86042985698847
10.108387328,0.9989877914587887,-160.23234191950385
10.118709248,0.9991653422281659,-160.60630773242153
10.129032192,0.9993854812556565,-160.98292855961046
