freq,mag,phase
6.0,1.0001794869723484,103.81313381220562
6.002287616,1.0003474092421714,103.66680965778873
6.004575232,1.0004936758366836,103.51820456509161
6.006862848,1.0006090721892538,103.3677736242411
6.009150464,1.000686470463498,103.21597166699803
6.011438592,1.0007206081161668,103.06338217144334
6.013726208,1.000709663940118,102.91067759394095
6.016013824,1.0006541149850239,102.75844699475797
6.01830144,1.0005574621815847,102.60739452862357
6.020589056,1.0004257567119623,102.45802001075442
6.022876672,1.000267507650353,102.31080788159711
6.025164288,1.0000925129401337,102.1660462014309
6.027451904,0.9999120377978697,102.02389555282286
6.029740032,0.9997376199319352,101.88435477512796
6.032027648,0.9995800966357145,101.74730154056583
6.034315264,0.9994496982296415,101.61234070013955
6.03660288,0.9993545757572422,101.47911071581605
6.038890496,0.9993008209533402,101.34696032853107
6.041178112,0.9992919682174852,101.21533152026805
6.043465728,0.9993286622585765,101.08354213637827
6.045753344,0.9994084779582372,100.95092138936104
6.04804096,0.9995263634692515,100.81690495243004
6.050329088,0.9996747780586579,100.68098901551387
6.052616704,0.9998444902833292,100.54277208813228
6.05490432,1.000024635084727,100.40209086913646
6.057191936,1.0002036991689625,100.25879020111246
6.059479552,1.0003704173316177,100.11301049592775
6.061767168,1.000514211679601,99.96501679805569
6.064054784,1.0006258019725274,99.81521082592275
6.0663424,1.0006982492057952,99.66408751285756
6.068630016,1.0007268653808672,99.51225559394389
6.070918144,1.0007099088685476,99.36039721147961
6.07320576,1.0006482682174747,99.20910122896096
6.075493376,1.0005458704680104,99.05906937666107
6.077780992,1.000409285920165,98.91076284729039
6.080068608,1.000247105111126,98.76471170426993
6.082356224,1.0000696276832153,98.6211071595088
6.08464384,0.999888042050929,98.48019855400192
6.086931456,0.9997138602722234,98.34188845627185
6.089219584,0.9995582380369705,98.20600693288672
6.0915072,0.9994311325700777,98.07225668141729
6.093794816,0.9993404572712674,97.94010159695125
6.096082432,0.9992922146729438,97.80897759170362
6.098370048,0.9992893619162823,97.67829332960402
6.100657664,0.9993321038968203,97.54734521737458
6.10294528,0.9994179206813013,97.4154769428843
6.105232896,0.9995411644907191,97.2821703577207
6.107520512,0.9996940617442935,97.14682691181294
6.10980864,0.999866933521019,97.0091959158978
6.112096256,1.0000489733108247,96.86894818491196
6.114383872,1.0002283350109877,96.72617527621776
6.116671488,1.0003937320553657,96.5808867807541
6.118959104,1.0005347494302057,96.43340404791546
6.12124672,1.0006422431417268,96.28416899504676
6.123534336,1.000709667909508,96.1336700668277
6.125821952,1.000732462223818,95.98254136136678
6.128109568,1.0007092760292393,95.8314664597537
6.130397696,1.0006415175264969,95.68106536816576
6.132685312,1.0005335051938307,95.53194244477889
6.134972928,1.000391974854729,95.38471338093295
6.137260544,1.0002259194726344,95.23968228599989
6.13954816,1.0000458779131713,95.09726236722828
6.141835776,0.9998632612133312,94.9575058188828
6.144123392,0.9996897348257264,94.82036178841882
6.146411008,0.9995363093604144,94.68561025993223
6.148699136,0.9994125783174657,94.55293341314704
6.150986752,0.9993266954884846,94.42183964890768
6.153274368,0.9992839869539032,94.2916729263247
6.155561984,0.999287383054358,94.16183291565255
6.1578496,0.9993363162574148,94.03166458042784
6.160137216,0.9994280423214039,93.90050284631943
6.162424832,0.9995567295158021,93.76775961552639
6.164712448,0.9997140563757574,93.63293414666308
6.167000064,0.9998900563723938,93.49574561252467
6.169288192,1.000073754862942,93.35597990932378
6.171575808,1.0002531778003056,93.21357150202982
6.173863424,1.0004170880815701,93.06870559270534
6.17615104,1.0005551832732849,92.92170163684177
6.178438656,1.000658532669918,92.77293407347847
6.180726272,1.0007206500024897,92.62299992647675
6.183013888,1.000737401977691,92.47251238927551
6.185301504,1.000707929237122,92.32214808296776
6.18758912,1.0006339220431726,92.17257006227841
6.189877248,1.0005201139850322,92.02435393001835
6.192164864,1.0003737102172723,91.87809923332753
6.19445248,1.0002039406632406,91.7341539126324
6.196740096,1.0000215395587948,91.59277351532928
6.199027712,0.9998381606817556,91.45409641211094
6.201315328,0.9996654161838893,91.31805865561093
6.203602944,0.9995142061211068,91.18439902144974
6.20589056,0.9993944259528341,91.05273804504027
6.208178688,0.9993134356632902,90.92256617565572
6.210466304,0.9992765126417397,90.79329047365397
6.21275392,0.9992859786967957,90.66426498898238
6.215041536,0.9993415052446977,90.53477407636046
6.217329152,0.9994391331980585,90.40418589526298
6.219616768,0.9995732282659265,90.27199061783155
6.221904384,0.9997348420269742,90.13762634357127
6.224192,0.9999138713899711,90.00081706400881
6.226479616,1.0000988908278527,89.86137116574395
6.228767744,1.0002783147419996,89.71933401770205
6.23105536,1.0004406065965061,89.57481742201914
6.233342976,1.0005754253918757,89.42816980824075
6.235630592,1.0006742540111448,89.27984966951418
6.237918208,1.0007308500509293,89.13041948324893
6.240205824,1.0007415854923103,88.98052006374981
6.24249344,1.000705684104239,88.83081998079899
6.244781056,1.0006254595026418,88.68200182303711
6.247068672,1.0005058869782986,88.53465074265212
6.2493568,1.0003546587962409,88.38931494718403
6.251644416,1.000181159985883,88.24632586434693
6.253932032,0.9999967072053226,88.10598977615668
6.256219648,0.999812682878965,87.96834098797194
6.258507264,0.9996409252199923,87.83336301044336
6.26079488,0.9994923946346589,87.70069411112479
6.263082496,0.9993764501833017,87.56997157160326
6.265370112,0.9993006573404228,87.4406923203304
6.26765824,0.9992696689715159,87.31222531119343
6.269945856,0.9992856383014794,87.18391224018882
6.272233472,0.9993475447943545,87.05502440537508
6.274521088,0.9994514143832861,86.92498723238624
6.276808704,0.9995906740256812,86.7931694973322
6.27909632,0.9997564502943244,86.65918854441938
6.281383936,0.9999383459721253,86.52269410665556
6.283671552,1.0001246731598452,86.38353065916581
6.285959168,1.0003038010022751,86.24172417175211
6.288247296,1.0004641239727599,86.0974752794981
6.290534912,1.000595518818879,85.95115639286514
6.292822528,1.0006896650461832,85.80321692261258
6.295110144,1.0007405623333416,85.65422968157233
6.29739776,1.000744978194452,85.50484908454065
6.299685376,1.0007024540816134,85.35579477865369
6.301972992,1.0006159360338691,85.20765810602225
6.304260608,1.0004907069282865,85.06111703281356
6.306548224,1.0003347297214316,84.9166293813507
6.308836352,1.0001577940921365,84.77458941502455
6.311123968,0.9999711548374635,84.6351949156053
6.313411584,0.9997867131726428,84.49853399977486
6.3156992,0.9996163492959294,84.36450014670079
6.317986816,0.9994706032692727,84.23278126196989
6.320274432,0.9993588904141518,84.10296078772394
6.322562048,0.999288343223404,83.97450494476466
6.324849664,0.9992635889382246,83.84676317666329
6.327137792,0.9992860087163123,83.71905128433082
6.329425408,0.999354478262772,83.59073387001138
6.331713024,0.999464399280002,83.46113284274584
6.33400064,0.9996088693117487,83.3296630336715
6.336288256,0.9997787961051028,83.19597007708228
6.338575872,0.9999633727578856,83.05968417706464
6.340863488,1.000150894040932,82.92070968835249
6.343151104,1.0003293872401355,82.77913042029449
6.34543872,1.0004874838356301,82.63509825710541
6.347726848,1.0006153007087855,82.48901776148092
6.350014464,1.0007045679339939,82.341365010808
6.35230208,1.000749534114322,82.19277998131791
6.354589696,1.0007474825909097,82.04386539505634
6.356877312,1.0006984803123231,81.8953655597169
6.359164928,1.000605536791445,81.74790312909539
6.361452544,1.0004746230454695,81.60210224636926
6.36374016,1.0003138191527392,81.45843426739359
6.366027776,1.00013362385676,81.3172527200642
6.368315904,0.9999451552258016,81.17877943060125
6.37060352,0.9997605654244848,81.04305274979956
6.372891136,0.9995915737018277,80.90990532002408
6.375178752,0.9994489236644776,80.77904181296381
6.377466368,0.9993417147347672,80.65004787537087
6.379753984,0.9992766965157652,80.52232735795627
6.3820416,0.9992582594744054,80.39523817224273
6.384329216,0.9992873034648955,80.26808757680398
6.386617344,0.999362306886484,80.14019975714862
6.38890496,0.9994783326345784,80.01094183430438
6.391192576,0.9996280916530352,79.87978657892212
6.393480192,0.9998019269327247,79.7462909354497
6.395767808,0.9999891037338513,79.6101600822027
6.398055424,1.000177500787269,79.47133279105817
6.40034304,1.0003552051141842,79.32984915786608
6.402630656,1.0005109905108758,79.18595484959697
6.404918272,1.0006347548975234,79.04006569088871
6.4072064,1.0007188344225055,78.89265653496024
6.409494016,1.00075777903438,78.74441030514883
6.411781632,1.000749222576595,78.59594146381966
6.414069248,1.0006934371408744,78.44792734633606
6.416356864,1.0005940969140361,78.30108048615556
6.41864448,1.000457410046285,78.15597108478894
6.420932096,1.0002921743860496,78.0130397156518
6.423219712,1.0001086521182865,77.8726800556771
6.425507328,0.9999185746086454,77.73504917111231
6.427795456,0.9997341001919099,77.60017844665951
6.430083072,0.9995668912230979,77.46788783329222
6.432370688,0.9994275047021265,77.33784230753332
6.434658304,0.9993249693963608,77.20958786685495
6.43694592,0.9992657699393851,77.08251922803267
6.439233536,0.9992536835291367,76.95600112194822
6.441521152,0.9992896913988251,76.82932955625466
6.443808768,0.9993711645023969,76.70181217497898
6.446096896,0.9994933637794482,76.57283244613512
6.448384512,0.9996482238293842,76.44187223210069
6.450672128,0.999826047884154,76.30849657989661
6.452959744,1.0000155356960967,76.17244273955852
6.45524736,1.0002045827334112,76.0336815562019
6.457534976,1.000381348302895,75.89224588729178
6.459822592,1.0005344045951077,75.74844319814235
6.462110208,1.000654083313169,75.60266468256845
6.464397824,1.0007328303543808,75.45545278718707
6.466685952,1.0007655769718289,75.30746742989633
6.468973568,1.0007501828100085,75.15934604714998
6.471261184,1.0006876066409696,75.01181551960968
6.4735488,1.0005819672461291,74.86550781805035
6.475836416,1.0004395780767685,74.72101436454997
6.478124032,1.0002697894971309,74.5788052838232
6.480411648,1.000083232291052,74.43921718340299
6.482699264,0.9998917312230544,74.30240221999047
6.48498688,0.9997074530800737,74.16830864617611
6.487275008,0.9995421792768316,74.03678517800776
6.489562624,0.9994063229139502,73.90748374709568
6.49185024,0.9993087020044802,73.77988589389817
6.494137856,0.9992554182587462,73.65341756996929
6.496425472,0.9992500497294886,73.5274238825235
6.498713088,0.9992927561146561,73.40112721575562
6.501000704,0.999381027946992,73.27391443599936
6.50328832,0.9995091424359032,73.1451497546593
6.505576448,0.9996691465907963,73.01427031714537
6.507864064,0.9998506215336078,72.88095411519008
6.51015168,1.0000423724954592,72.74491288907086
6.512439296,1.0002319035975231,72.60612349067725
6.514726912,1.0004073433160159,72.46469397719251
6.517014528,1.0005574201107326,72.32088519303768
6.519302144,1.0006728513815613,72.17516932779144
6.52158976,1.0007460023180748,72.02810555402952
6.523877376,1.000772295795439,71.88034299942544
6.526165504,1.000750128586507,71.7325358285554
6.52845312,1.0006806620807553,71.58540297912418
6.530740736,1.0005685766744745,71.43959954086813
6.533028352,1.0004207531543223,71.29567930621731
6.535315968,1.0002465267306944,71.1541532432923
6.537603584,1.0000571261496092,71.01526141741964
6.5398912,0.9998642935130394,70.87914952710074
6.542178816,0.9996805375950873,70.74581019115166
6.544466432,0.9995174554948059,70.6150013993723
6.54675456,0.9993854555796091,70.48636937055066
6.549042176,0.9992929476482489,70.35939787351708
6.551329792,0.9992458499347302,70.23343965331219
6.553617408,0.9992471629497987,70.10785646388425
6.555905024,0.9992967847071025,69.98188636429514
6.55819264,0.9993917728187444,69.85487277652796
6.560480256,0.9995259275142855,69.72621623382221
6.562767872,0.9996907781621422,69.59539545214554
6.565056,0.9998759235158007,69.46204814555838
6.567343616,1.0000695925493928,69.32594754076041
6.569631232,1.0002594227366173,69.18706238809503
6.571918848,1.0004332979294877,69.04552960052791
6.574206464,1.0005803011827796,68.90167765743917
6.57649408,1.0006909849428296,68.75599016112577
6.578781696,1.0007584197135226,68.60903216458861
6.581069312,1.000778156476561,68.46138936925988
6.583356928,1.000749055349471,68.3138269338862
6.585645056,1.0006727374378064,68.16705271787939
6.587932672,1.000554253080427,68.02169064446659
6.590220288,1.0004009239178957,67.87834075642476
6.592507904,1.0002224539980558,67.73740445726482
6.59479552,1.000030376078157,67.59916048938582
6.597083136,0.9998365808629148,67.46374132814553
6.599370752,0.9996534971985986,67.33107728907456
6.601658368,0.999492893551746,67.20089798815276
6.603945984,0.9993649672547859,67.07288652522504
6.606234112,0.9992777699031548,66.94643377195024
6.608521728,0.9992369423360631,66.8209227439604
6.610809344,0.999245164162715,66.69567085355496
6.61309696,0.9993019611653977,66.56993813236276
6.615384576,0.9994036281983966,66.44309111276154
6.617672192,0.9995437500667363,66.31447091803432
6.619959808,0.9997135101002704,66.18362334909763
6.622247424,0.9999020211107632,66.05014021603714
6.624535552,1.0000975084539645,65.91389019757037
6.626823168,1.000287303106328,65.77486169063803
6.629110784,1.0004594574697385,65.63320242231295
6.6313984,1.0006030569943167,65.48924169151064
6.633686016,1.000708996557603,65.3434540764044
6.635973632,1.0007703649999118,65.19649804848626
6.638261248,1.0007834405531622,65.04900072397423
6.640548864,1.0007471816917448,64.90166354441496
6.64283648,1.000664023203287,64.75516583835014
6.645124608,1.000539104413566,64.61022971154974
6.647412224,1.000380360708847,64.46734127743096
6.64969984,1.0001977792264942,64.32695034404014
6.651987456,1.0000030776156614,64.18929943429447
6.654275072,0.9998084978273424,64.05449410617089
6.656562688,0.9996264395294072,63.92243277438399
6.658850304,0.999468577877054,63.79288302845818
6.66113792,0.9993448275725701,63.665364863600146
6.663426048,0.9992632628356513,63.539370885657235
6.665713664,0.9992288550917731,63.41422755276267
6.66800128,0.9992440828101774,63.289240177247585
6.670288896,0.9993078825442241,63.163682188035445
6.672576512,0.9994162452003724,63.03687751315048
6.674864128,0.9995624168293651,62.908228089291114
6.677151744,0.9997368377123111,62.77725492596736
6.67943936,0.9999286333491217,62.64362941221159
6.681726976,1.000125671250964,62.507155383128676
6.684015104,1.0003151868625284,62.36789526535385
6.68630272,1.0004854227605902,62.2260214423668
6.688590336,1.0006253749498397,62.081884954339515
6.690877952,1.0007262164109352,61.93598889895326
6.693165568,1.0007814110064404,61.78898099533708
6.695453184,1.000787638816799,61.64153190971713
6.6977408,1.0007442754410125,61.49434915373201
6.700028416,1.000654159215139,61.34813372445687
6.702316032,1.0005229499892034,61.203529628645036
6.70460416,1.0003588880125536,61.06107513362191
6.706891776,1.0001724301451358,60.92117462306899
6.709179392,0.9999752732387528,60.784077414019954
6.711467008,0.9997801105591672,60.64983004725978
6.713754624,0.9995993407055165,60.51832149740396
6.71604224,0.9994443746884938,60.38927263030815
6.718329856,0.9993251579481985,60.262238131091635
6.720617472,0.9992493423638019,60.136622398855906
6.7229056,0.9992216105845726,60.01177519896576
6.725193216,0.9992439656630782,59.88698945193139
6.727480832,0.9993149240314547,59.76152594057503
6.729768448,0.999430011278184,59.6346852933715
6.732056064,0.9995818645468832,59.50591701937257
6.73434368,0.999761001577003,59.37474737494723
6.736631296,0.9999559269182305,59.24087330205496
6.738918912,1.0001542229642655,59.10409972517301
6.741206528,1.0003433522503913,58.96455809849341
6.743494656,1.000511272675343,58.82239026993742
6.745782272,1.0006473547567625,58.67801633602802
6.748069888,1.0007429271137258,58.531960588614886
6.750357504,1.0007918314746918,58.38485737366971
6.75264512,1.000791029642271,58.23740736005589
6.754932736,1.000740440583074,58.09035485541944
6.757220352,1.0006433120232585,57.944326890581905
6.759507968,1.0005058441780192,57.80003922101301
6.761795584,1.0003365568128633,57.65796527388804
6.764083712,1.000146304082038,57.518494056247306
6.766371328,0.9999470050061208,57.3818761520337
6.768658944,0.9997515830264461,57.24813130188965
6.77094656,0.9995722108779393,57.11710778229574
6.773234176,0.9994204850398852,56.988519234813616
6.775521792,0.9993059994437378,56.861865107001066
6.777809408,0.9992360909556288,56.73658567695543
6.780097024,0.9992152432432274,56.61195183653062
6.782385152,0.9992447800650258,56.48724745862125
6.784672768,0.9993229784104545,56.36178857969941
6.786960384,0.9994447504465214,56.23486868636088
6.789248,0.9996023515081622,56.105911432121935
6.791535616,0.9997859691770622,55.97447197222461
6.793823232,0.9999837794885886,55.840259128872404
6.796110848,1.0001832051903659,55.703146745868615
6.798398464,1.000371629767781,55.56323097929241
6.80068608,1.0005371375776517,55.4207281398188
6.802974208,1.0006690391346937,55.27605488467299
6.805261824,1.0007591159003961,55.12977636631607
6.80754944,1.0008015353771338,54.982522733804394
6.809837056,1.0007935732461806,54.83503761590185
6.812124672,1.0007358030033373,54.68800973065764
6.814412288,1.0006316388278027,54.542148735659595
6.816699904,1.00048788904017,54.39808453662727
6.81898752,1.000313530790833,54.2563522103918
6.821275136,1.0001195539040173,54.11726803914607
6.823563264,0.9999184549528861,53.981084775914134
6.82585088,0.9997228983259647,53.84779174674003
6.828138496,0.9995452710633385,53.717182309808486
6.830426112,0.9993970133612069,53.588988815086175
6.832713728,0.9992874377431445,53.46265242532728
6.835001344,0.9992236690234164,53.33759359844738
6.83728896,0.9992097608433331,53.21309602679445
6.839576576,0.9992466467940495,53.08844711355918
6.841864704,0.9993319733538106,52.96292059301996
6.84415232,0.9994603971627428,52.835826126875304
6.846439936,0.9996237367485533,52.706591728507284
6.848727552,0.9998116013525813,52.574803265429146
6.851015168,1.0000120675065536,52.44019504144402
6.853302784,1.0002124527287,52.302683848920665
6.8555904,1.0003998943547763,52.16230021841391
6.857878016,1.0005626146091433,52.01939270273303
6.860165632,1.000690244953452,51.874372576049275
6.86245376,1.0007746192191411,51.72779911292028
6.864741376,1.0008103232164134,51.58037730822511
6.867028992,1.0007951749411268,51.43276981426072
6.869316608,1.0007299974125954,51.28574197026397
6.871604224,1.0006188670448226,51.139992862763
6.87389184,1.0004689099702062,50.99613023641401
6.876179456,1.000289570836612,50.854677282836114
6.878467072,1.0000922492498432,50.71595028278719
6.880754688,0.9998893848353303,50.58011597397053
6.883042816,0.9996938956047086,50.44719022096157
6.885330432,0.9995182535719265,50.316970137825386
6.887618048,0.9993736198178322,50.18907438968177
6.889905664,0.9992693185605278,50.06299092761254
6.89219328,0.9992119195543324,49.93809732766363
6.894480896,0.9992050473450012,49.81368925308394
6.896768512,0.9992493251545267,49.688988893674185
6.899056128,0.9993418337690637,49.56329143224919
6.901344256,0.999476887347811,49.43592082139391
6.903631872,0.9996457423790647,49.30636270150317
6.905919488,0.9998377587033797,49.17416775726874
6.908207104,1.000040763159698,49.03908190507445
6.91049472,1.0002418080134226,48.90103924926607
6.912782336,1.0004280120463818,48.76019153715708
6.915069952,1.0005878290524768,48.61683757238249
6.917357568,1.0007108638808595,48.47140254066671
6.919645184,1.0007892314917828,48.32447752751927
6.921933312,1.0008182012825877,48.17678776825067
6.924220928,1.0007957290576979,48.02904431633913
6.926508544,1.0007231577967641,47.881973395313054
6.92879616,1.0006051664510525,47.73626144543226
6.931083776,1.0004491112073,47.592564449232
6.933371392,1.0002649284783178,47.45130975184619
6.935659008,1.000064333684367,47.31286159808787
6.937946624,0.9998599991630099,47.177337854712505
