freq,mag,phase
6.0,1.0003374563305403,4.274655941826768
6.008333312,1.000276425821698,4.017479058256101
6.016666624,1.0001994673281926,3.761105162092727
6.024999936,1.0001116008541218,3.505810657823138
6.033333248,1.000017428393178,3.251724697302068
6.04166656,0.9999221042534913,2.998846389569903
6.049999872,0.9998304230347328,2.7471777932335875
6.058333184,0.999747797135947,2.496675228738015
6.066666496,0.9996782622306712,2.2470980919919037
6.074999808,0.9996256948617706,1.9983156160053235
6.08333312,0.9995931171310628,1.7500866807719535
6.091666432,0.9995820361803849,1.5020869091348634
6.099999744,0.999593374391792,1.2540738574581234
6.108333568,0.9996262581348166,1.0057300775851334
6.11666688,0.9996792018109862,0.7567592794103228
6.125000192,0.9997493352709301,0.5069502656849436
6.133333504,0.9998328991290883,0.2560578327640368
6.141666816,0.9999253774380078,0.004013527143823596
6.150000128,1.000021869929399,-0.24937781310111662
6.15833344,1.0001173859114239,-0.5040953324901407
6.166666752,1.0002063832320245,-0.7600778648922334
6.175000064,1.0002844880225805,-1.0172498715510971
6.183333376,1.0003472412271603,-1.2753811061800402
6.191666688,1.0003914135575183,-1.534226722762175
6.2,1.0004143905600984,-1.7936142432241646
6.208333312,1.0004152219978955,-2.053169656283111
6.216666624,1.0003934671465289,-2.3126531269482586
6.224999936,1.0003506365438732,-2.571751292426686
6.233333248,1.0002885779425896,-2.8301741742528956
6.24166656,1.0002108012164523,-3.0877198102234584
6.249999872,1.000121535424377,-3.3441908937085705
6.258333184,1.0000254932267636,-3.599448362091785
6.266666496,0.9999276443338736,-3.853502479540979
6.274999808,0.9998334572080613,-4.106276848304532
6.28333312,0.9997476680407295,-4.357875124552364
6.291666432,0.9996753476453032,-4.60848298504187
6.300000256,0.9996201706939867,-4.858228086023695
6.308333568,0.9995850220123008,-5.107469336018284
6.31666688,0.9995720585346031,-5.356379403997347
6.325000192,0.9995818086872972,-5.605335235437071
6.333333504,0.99961394059925,-5.854569110655564
6.341666816,0.9996666556704772,-6.104452285062033
6.350000128,0.9997374133002039,-6.355132442737904
6.35833344,0.9998220959134454,-6.606935591865542
6.366666752,0.9999162919175553,-6.8599455315403475
6.375000064,1.000015030395504,-7.114311534400584
6.383333376,1.0001130051049596,-7.3700177889677745
6.391666688,1.0002050180169966,-7.627024368733974
6.4,1.0002860589225524,-7.885229835841931
6.408333312,1.0003517192880156,-8.144478253327417
6.416666624,1.0003983627321653,-8.40451668953032
6.424999936,1.0004237584689684,-8.665066028739865
6.433333248,1.0004262949142295,-8.925866629265055
6.44166656,1.0004059462371193,-9.186568232400774
6.449999872,1.000363355489069,-9.4469239067048
6.458333184,1.0003012824797504,-9.706632395315712
6.466666496,1.0002227131354455,-9.965396538500542
6.474999808,1.000131907777776,-10.223120272695441
6.48333312,1.0000337508317554,-10.479605666588537
6.491666432,0.999933471286908,-10.734827593296437
6.499999744,0.9998363801186193,-10.988763968182626
6.508333568,0.9997477186626653,-11.241491498177405
6.51666688,0.9996722828480047,-11.493137539066467
6.525000192,0.9996142539989482,-11.743996398188285
6.533333504,0.9995766104206352,-11.994189721018039
6.541666816,0.9995614359862489,-12.244089018391474
6.550000128,0.9995697381914773,-12.49394498235109
6.55833344,0.9996009690840045,-12.744181689076587
6.566666752,0.9996536289646863,-12.994924192970895
6.575000064,0.9997247713732652,-13.246607721043656
6.583333376,0.9998105737559752,-13.499296936008326
6.591666688,0.9999066484901854,-13.753339349711103
6.6,1.0000077498573472,-14.008666856348079
6.608333312,1.0001085549932622,-14.2654114849468
6.616666624,1.0002035262121327,-14.52350390513761
6.624999936,1.0002876039567656,-14.78281494325485
6.633333248,1.0003562113610387,-15.043240304242243
6.64166656,1.0004058034200702,-15.304425146964087
6.649999872,1.0004336616094989,-15.566237517320465
6.658333184,1.0004380555579482,-15.82829401823132
6.666666496,1.0004187787549137,-16.090294335396894
6.674999808,1.0003769026952756,-16.351952610325963
6.68333312,1.0003145961883055,-16.612924010919084
6.691666432,1.0002352074588907,-16.87305823163802
6.700000256,1.0001427952288415,-17.13199488811958
6.708333568,1.0000424825409153,-17.389779122905658
6.71666688,0.9999395170089124,-17.64622277990337
6.725000192,0.9998394716050084,-17.901378018605794
6.733333504,0.9997476948013296,-18.155248976355114
6.741666816,0.9996692817425286,-18.4080173582348
6.750000128,0.9996081949855026,-18.659956654336373
6.75833344,0.9995678730631964,-18.911160549205608
6.766666752,0.9995505839952541,-19.162083202379907
6.775000064,0.9995571251157489,-19.412955457178747
6.783333376,0.9995874225697271,-19.664079268655787
6.791666688,0.9996397994129206,-19.915859069877538
6.8,0.9997114187801808,-20.16846044423455
6.808333312,0.9997986665886754,-20.422158803866893
6.816666624,0.9998965669132438,-20.677167734912626
6.824999936,1.0000000164892702,-20.933571217206445
6.833333248,1.0001036980420446,-21.191337572820537
6.84166656,1.0002018330735207,-21.45054269540387
6.849999872,1.00028915105306,-21.711042662185086
6.858333184,1.000361041231397,-21.972626006845644
6.866666496,1.000413557376865,-22.235098774203323
6.874999808,1.0004438249011622,-22.49814291159816
6.88333312,1.000450282843756,-22.7615224777548
6.891666432,1.0004323337888672,-23.024829589750908
6.899999744,1.000391172733321,-23.287852972059078
6.908333568,1.0003287024673453,-23.550200440571803
6.91666688,1.0002484946447794,-23.81160945804891
6.925000192,1.0001542823144836,-24.07197919370578
6.933333504,1.0000519168321513,-24.331021507419774
6.941666816,0.9999461732235655,-24.588770046262265
6.950000128,0.9998431081171986,-24.845117991268676
6.95833344,0.9997481448857608,-25.100192687982997
6.966666752,0.9996661412960466,-25.35417014621167
6.975000064,0.999601919361685,-25.60717089826658
6.983333376,0.9995587828490174,-25.85948674332363
6.991666688,0.9995392458663369,-26.111419512211068
7.0,0.9995440765129684,-26.363294100760417
7.008333312,0.9995733588414633,-26.61545143656094
7.016666624,0.9996253480458787,-26.86819466711412
7.024999936,0.9996975931899206,-27.121813763500217
7.033333248,0.9997859590332773,-27.37653069716294
7.04166656,0.9998860028403516,-27.632552108177986
7.049999872,0.9999920963375126,-27.889989963109336
7.058333184,1.0000986799379252,-28.148914657423592
7.066666496,1.0001999488305036,-28.40923032513852
7.074999808,1.0002908745278827,-28.670896122738913
7.08333312,1.0003660077605585,-28.933735592194434
7.091666432,1.0004216026501178,-29.197443801199803
7.100000256,1.0004545263123505,-29.461861721723153
7.108333568,1.000462917196759,-29.726574359858724
7.11666688,1.0004465832026255,-29.991300323544692
7.125000192,1.0004059500973395,-30.255679350295296
7.133333504,1.0003434795097277,-30.519398744551307
7.141666816,1.0002622318469867,-30.78228397997068
7.150000128,1.0001666253898893,-31.043980712393477
7.15833344,1.0000617983471134,-31.304392322855453
7.166666752,0.9999532513331068,-31.563446794326797
7.175000064,0.9998468270939189,-31.821093397442922
7.183333376,0.9997483439590855,-32.07742872087362
7.191666688,0.9996630493252769,-32.33252067755776
7.2,0.9995953635213771,-32.58669809409389
7.208333312,0.9995493126855692,-32.840165489504955
7.216666624,0.9995271450838534,-33.093167699928095
7.224999936,0.9995302134042875,-33.346086255197456
7.233333248,0.9995584036490653,-33.59928786086143
7.24166656,0.9996101418840536,-33.85303527372084
7.249999872,0.9996827872055044,-34.10764155420446
7.258333184,0.9997725587114576,-34.363421256501155
7.266666496,0.9998745836387319,-34.62044934011426
7.274999808,0.9999833494535716,-34.87901973746036
7.28333312,1.000093153752368,-35.1390468479975
7.291666432,1.00019793249204,-35.40056547238066
7.299999744,1.0002922524924085,-35.66346129079599
7.308333568,1.0003710109727795,-35.92755601467639
7.31666688,1.0004298690913964,-36.19262575275707
7.325000192,1.0004657110463295,-36.458379709879985
7.333333504,1.000476411273632,-36.724488516038356
7.341666816,1.0004613560955418,-36.99064075534627
7.350000128,1.0004217248061298,-37.25644306681638
7.35833344,1.00035905435645,-37.52162130572014
7.366666752,1.0002767908798122,-37.785935931918324
7.375000064,1.0001795044213948,-38.04907652549461
7.383333376,1.000072250534418,-38.31089680077831
7.391666688,0.9999607614969971,-38.57130788471559
7.4,0.999850874967855,-38.830278667928724
7.408333312,0.9997487750657957,-39.087856474450454
7.416666624,0.9996598175176737,-39.34422784989999
7.424999936,0.99958878485187,-39.599572812865254
7.433333248,0.9995394203538462,-39.854172415561386
7.44166656,0.9995146641203554,-40.108306812842734
7.449999872,0.9995158081711987,-40.36231539030231
7.458333184,0.9995426875254789,-40.61653657921616
7.466666496,0.9995941482384058,-40.87134069253439
7.474999808,0.9996673109867042,-41.127014455606066
7.48333312,0.9997583741568155,-41.38384857358713
7.491666432,0.9998624817808917,-41.641981243829406
7.500000256,0.9999740251229569,-41.901642647833775
7.508333568,1.000087095217159,-42.162821097042595
7.51666688,1.0001955647833292,-42.42557351541999
7.525000192,1.0002936285135706,-42.68971529251433
7.533333504,1.0003760232324073,-42.95512025548684
7.541666816,1.0004382818690376,-43.22152474304986
7.550000128,1.0004770580468898,-43.48870342765093
7.55833344,1.0004902203921362,-43.7562553841743
7.566666752,1.0004769105663878,-44.02387046229965
7.575000064,1.0004380727280668,-44.291190161925506
7.583333376,1.0003752039656342,-44.55786004230288
7.591666688,1.0002922038468083,-44.82366434215424
7.6,1.000193064232881,-45.08826217401874
7.608333312,1.0000833311853767,-45.35151757189023
7.616666624,0.9999686863411218,-45.61335110481698
7.624999936,0.9998553771464372,-45.87368144338395
7.633333248,0.9997493985762974,-46.13261647794697
7.64166656,0.9996566064713844,-46.39024352998066
7.649999872,0.9995817045485822,-46.64681012128233
7.658333184,0.9995292402238393,-46.90258841471103
7.666666496,0.9995016015612177,-47.157829035988385
7.674999808,0.9995005830147153,-47.41295350133171
7.68333312,0.9995262178774201,-47.6682825151826
7.691666432,0.999577250784613,-47.924138325910214
7.699999744,0.9996509587634057,-48.18087838466141
7.708333568,0.9997434254282558,-48.43878258869712
7.71666688,0.9998496563037701,-48.698071306118024
7.725000192,0.999964074436149,-48.958846729563334
7.733333504,1.0000805566900135,-49.22122420690589
7.741666816,1.0001926995661086,-49.485184156557004
7.750000128,1.0002948521421717,-49.75065225185477
7.75833344,1.000381088940872,-50.017423621481875
7.766666752,1.0004470947739235,-50.28521122811002
7.775000064,1.0004890126199246,-50.553834236678085
7.783333376,1.0005047726866791,-50.82284585743397
7.791666688,1.0004932106439242,-51.09200407139797
7.8,1.0004551252191558,-51.36081226859471
7.808333312,1.0003925616908598,-51.629072138680385
7.816666624,1.0003084776201034,-51.89638411947115
7.824999936,1.0002076436428293,-52.162496644440104
7.833333248,1.0000951388720498,-52.42726911995995
7.84166656,0.999977285000007,-52.690542845178484
7.849999872,0.9998603209831052,-52.952296288177045
7.858333184,0.9997503627876436,-53.212589995648656
7.866666496,0.9996533750875682,-53.47154298846238
7.874999808,0.9995747143324843,-53.72937641181705
7.88333312,0.999518559900387,-53.986317215968235
7.891666432,0.99948797661043,-54.2427411376299
7.900000256,0.9994847562744942,-54.49899739878903
7.908333568,0.9995089176165641,-54.755432319266056
7.91666688,0.9995594575427467,-55.01237169283936
7.925000192,0.9996335658510899,-55.27022836828198
7.933333504,0.9997274646012182,-55.52925027831764
7.941666816,0.9998358588818073,-55.7896598904642
7.950000128,0.9999533343962437,-56.05162821553758
7.95833344,1.00007344402724,-56.315228697819215
7.966666752,1.0001896930031602,-56.580436594261585
7.975000064,1.000295889983227,-56.84720097968796
7.983333376,1.0003862814946711,-57.11536858276756
7.991666688,1.0004560603726156,-57.38460223634957
8.0,1.0005014006771447,-57.65469485368075
8.008333312,1.000519882306185,-57.925251054798906
8.016666624,1.0005102198716498,-58.19595550707392
8.024999936,1.0004731963630844,-58.466382627174326
8.033333248,1.0004105146969982,-58.73620285944724
8.04166656,1.0003255439815002,-59.00509405260935
8.049999872,1.0002228765088617,-59.272775501219954
8.058333184,1.0001079204139063,-59.539094884789186
8.066666496,0.9999866119596286,-59.803877529140216
8.074999808,0.999865606417062,-60.06708400043168
8.08333312,0.9997514756472653,-60.32877143281432
8.091666432,0.9996502712681862,-60.58905877049057
8.099999744,0.9995675721391938,-60.84816739408147
8.108333568,0.999507609417585,-61.106396770329006
8.11666688,0.9994738028179322,-61.36400191971404
8.125000192,0.999468171685708,-61.621384550533556
8.133333504,0.9994907600907077,-61.87896697420314
8.141666816,0.9995406603107663,-62.13705532324883
8.150000128,0.9996152181394838,-62.39601881285945
8.15833344,0.9997105437968622,-62.656156364940976
8.166666752,0.9998212947683386,-62.91771957642389
8.175000064,0.9999418873492635,-63.180866159188994
8.183333376,1.0000656861455495,-63.445733742821375
8.191666688,1.000186177084991,-63.712227299972035
8.2,1.0002966386094474,-63.980381278200085
8.208333312,1.0003914323962322,-64.24992984107648
8.216666624,1.0004652996700822,-64.52065287521745
8.224999936,1.0005142028102765,-64.79224299255323
8.233333248,1.0005356404862,-65.06439794142729
8.24166656,1.0005281519237872,-65.33667576814958
8.249999872,1.0004921594264404,-65.60872653192594
8.258333184,1.0004296106421975,-65.8802064686321
8.266666496,1.0003437675027722,-66.15071060981863
8.274999808,1.0002391779059658,-66.42004453412842
8.28333312,1.000121281049872,-66.68792439917607
8.291666432,0.9999965846190582,-66.9542350684046
8.300000256,0.9998715142545701,-67.21896606334309
8.308333568,0.9997529831820856,-67.48208562603806
8.31666688,0.9996472261857349,-67.7437566143193
8.325000192,0.9995600199368261,-68.00418977090195
8.333333504,0.9994961718298772,-68.2636745990338
8.341666816,0.9994589368083365,-68.52252093008073
8.350000128,0.9994506342355665,-68.7811221526534
8.35833344,0.9994716011294109,-69.03980279324742
8.366666752,0.9995209550529286,-69.29902993411639
8.375000064,0.9995958598025317,-69.55913529088839
8.383333376,0.99969249088355,-69.8204065960325
8.391666688,0.9998057553645534,-70.08317067476668
8.4,0.9999294864451316,-70.34754312659967
8.408333312,1.0000571918976333,-70.61364411359015
8.416666624,1.0001819748811736,-70.88148709904576
8.424999936,1.0002973093691425,-71.15097940559673
8.433333248,1.0003965589923816,-71.42197473409989
8.44166656,1.000474882776088,-71.69422189087483
8.449999872,1.000527627230579,-71.96738354103229
8.458333184,1.0005520704416264,-72.24113131180262
8.466666496,1.0005468333737593,-72.51505721206365
8.474999808,1.000512192040366,-72.7887921187624
8.48333312,1.0004498605294279,-73.0619064726287
8.491666432,1.000363094370255,-73.3341454944081
8.499999744,1.0002565056631156,-73.60510232327212
8.508333568,1.0001358575574972,-73.87461350369078
8.51666688,1.000007325825427,-74.14255210588355
8.525000192,0.9998780444896157,-74.4087949076726
8.533333504,0.9997548427682843,-74.67340850554584
8.541666816,0.999644336405385,-74.9365156769606
8.550000128,0.9995525858804173,-75.19828143406522
8.55833344,0.9994843005805153,-75.45908003020878
8.566666752,0.9994436453070167,-75.71915389849588
8.575000064,0.999432350191056,-75.97895171009004
8.583333376,0.9994514917645533,-76.2388343500758
8.591666176,0.9994999640923605,-76.4991983790846
8.600000512,0.9995752410350304,-76.76046083113674
8.608333824,0.9996733218015464,-77.0229094603215
8.616667136,0.9997890734009116,-77.28683767846778
8.625000448,0.9999162378907797,-77.55246572405504
8.63333376,1.0000479331367347,-77.81985018680523
8.641667072,1.0001773583027527,-78.08902269046469
8.650000384,1.0002974806888811,-78.35993844952516
8.658333696,1.0004016789699806,-78.63240533651829
8.666667008,1.0004844986540515,-78.90618139187657
8.67500032,1.000541442231793,-79.1809382036799
8.683333632,1.0005692398190529,-79.456332290759
8.691666944,1.0005665171565565,-79.7319426576153
8.700000256,1.0005332356827732,-80.00739959897162
8.708333568,1.000471252909773,-80.28228317657823
8.71666688,1.0003835697409458,-80.55620600258356
8.725000192,1.0002750541554575,-80.82890278164992
8.733333504,1.0001513419548547,-81.10009726761965
8.741666816,1.0000190548955408,-81.36964557878088
8.750000128,0.9998852186052678,-81.63747865750061
8.75833344,0.9997571160543001,-81.9036012555062
8.766666752,0.9996416456373084,-82.16814678221569
8.775000064,0.999544873697697,-82.43133454409782
8.783333376,0.999472145827841,-82.69346378449083
8.791666688,0.9994273693305804,-82.95478889726691
8.8,0.9994131567400759,-83.2157908484975
8.808333312,0.9994302539983615,-83.47687914662208
8.816666624,0.9994778345943337,-83.73844526667561
8.824999936,0.9995533291608315,-84.00085596078915
8.833333248,0.9996528468541024,-84.26448334189759
8.84166656,0.9997711096720309,-84.52964020789638
8.849999872,0.9999016926136521,-84.79649162435489
8.858333184,1.0000378507282668,-85.06518275551943
8.866666496,1.000172066071144,-85.33573160119848
8.874999808,1.000297312737163,-85.60807248094316
8.88333312,1.0004067524558342,-85.88203092620174
8.891666432,1.0004944860302285,-86.15735530592028
8.899999744,1.0005557061725237,-86.43376242905742
8.908333056,1.0005873061216706,-86.7108491615658
8.916666368,1.0005872078679534,-86.98817889286825
8.92499968,1.0005555708466891,-87.26538597644523
8.933332992,1.0004937855627993,-87.54204174282204
8.941666304,1.0004053333086118,-87.81775549998463
8.949999616,1.0002948264796232,-88.09221038262456
8.958332928,1.000168054225551,-88.3651361048101
8.96666624,1.0000317432694008,-88.63636130351762
8.974999552,0.9998931838781343,-88.90581252347256
8.983332864,0.9997599792600267,-89.17349355069148
8.991666176,0.9996390584511536,-89.43952686526082
8.999999488,0.9995370861325593,-89.70412461491851
9.008333824,0.9994595456907673,-89.96759820518156
9.016667136,0.9994106517553606,-90.23023892665654
9.025000448,0.9993930701801532,-90.49249181552875
9.03333376,0.9994078169275786,-90.75476818886155
9.041667072,0.9994543824624549,-91.0175067161365
9.050000384,0.9995300617480183,-91.28110934004805
9.058333696,0.9996310084147441,-91.5459329550604
9.066667008,0.9997518683536613,-91.81230686884028
9.07500032,0.9998862288242801,-92.0804129296654
9.083333632,1.000026818164756,-92.35039978680219
9.091666944,1.0001661784954863,-92.62234760298664
9.100000256,1.0002967939641623,-92.8961090138292
9.108333568,1.000411646416559,-93.17161366488764
9.11666688,1.000504754423765,-93.44855697959602
9.125000192,1.000570614211452,-93.72662677948531
9.133333504,1.00060611611102,-94.00541337308825
9.141666816,1.000608996600317,-94.28453577325011
9.150000128,1.0005790437736524,-94.56355374136804
9.15833344,1.000517846979744,-94.84201524317614
9.166666752,1.0004286216019742,-95.11953596719898
9.175000064,1.0003160658660475,-95.39580081872856
9.183333376,1.000186101343034,-95.6704977993539
9.191666688,1.000045620040774,-95.94343882516063
9.2,0.9999022076760573,-96.21454207986747
9.208333312,0.9997633835180648,-96.48384807831675
9.216666624,0.9996369416657521,-96.75139844497642
9.224999936,0.9995293730131893,-97.01745080692825
9.233333248,0.9994466455361144,-97.28227888566485
9.24166656,0.9993931930506965,-97.54622711681519
9.249999872,0.9993720809390939,-97.80974484572681
9.258333184,0.9993843172274869,-98.07326290837004
9.266666496,0.9994295830926091,-98.3371784529386
9.274999808,0.999505397524993,-98.60195622658027
9.28333312,0.999607786045672,-98.86798992493411
9.291666432,0.9997312455582499,-99.13558008243827
9.299999744,0.9998693756067291,-99.40495847064925
9.308333056,1.0000147017673036,-99.67630045932917
9.316666368,1.0001593639839879,-99.94960339453182
9.32499968,1.0002957829380283,-100.22488447374496
9.333332992,1.0004164871479004,-100.50190032162584
9.341666304,1.0005150262328364,-100.78047387118457
9.349999616,1.0005861157398395,-101.06022554621903
