freq,mag,phase
6.0,1.0004516416755236,15.021250211702164
6.002286592,1.00051731649423,14.830222101811792
6.004572672,1.0005495418274948,14.638323318307126
6.006859264,1.00054677509067,14.446085462287842
6.009145344,1.0005092929176154,14.254006067589284
6.011431936,1.0004392153104873,14.062567964374262
6.013718016,1.0003410955653151,13.872177592565162
6.016004608,1.000221049896525,13.68324579716271
6.018290688,1.0000865670014685,13.496012037372163
6.02057728,0.9999462302563148,13.310643898810154
6.022863872,0.9998087195392745,13.127137608897238
6.025149952,0.9996826762260644,12.945393909905997
6.027436544,0.9995762069443851,12.765178190900142
6.029722624,0.9994957843818316,12.586204378084886
6.032009216,0.9994466437238293,12.40801047636772
6.034295296,0.9994319168107317,12.230151478596152
6.036581888,0.9994523899689971,12.052117494690664
6.03886848,0.9995069083721624,11.87338735861934
6.04115456,0.9995919634155102,11.693513952143581
6.043441152,0.9997022605636553,11.512064735139136
6.045727232,0.999830904666119,11.32874338447209
6.048013824,0.9999697659311845,11.143346203866454
6.050299904,1.0001100059130412,10.95579813107874
6.052586496,1.0002429947822662,10.766091871217858
6.054872576,1.0003602465907833,10.574460228723574
6.057159168,1.0004544798741737,10.381123733833768
6.05944576,1.0005196693378826,10.186520103233509
6.06173184,1.0005518426855318,9.991054945760045
6.064018432,1.000548860559412,9.795229107800516
6.066304512,1.0005110570430407,9.599560590204437
6.068591104,1.0004404637457702,9.404508872158926
6.070877184,1.0003418796438268,9.210528386669777
6.073163776,1.0002212537368327,9.017987565925218
6.075450368,1.0000861744851903,8.827162420216052
6.077736448,0.9999451984908825,8.63817849816705
6.08002304,0.9998072671377808,8.451048040222977
6.08230912,0.9996808103259378,8.265707201712827
6.084595712,0.9995739496851078,8.081893987619413
6.086881792,0.9994934303661818,7.89930501938195
6.089168384,0.9994442188538413,7.717495683261863
6.091454464,0.9994294626329262,7.536000596944635
6.093741056,0.9994501161638962,7.354296945979752
6.096027648,0.9995050112556597,7.171909414360703
6.098313728,0.9995905038129212,6.988361267034746
6.10060032,0.9997012262934366,6.803244432475464
6.1028864,0.99983042089521,6.61621339619894
6.105172992,0.9999698131284765,6.427110803532494
6.107459072,1.0001107022075768,6.23581087265837
6.109745664,1.0002441593185971,6.042363429631988
6.112032256,1.0003618122358011,5.846958850491314
6.114318336,1.0004563718895811,5.649842374129656
6.116604928,1.0005218824349855,5.451440456307408
6.118891008,1.0005540795444416,5.252173479419979
6.1211776,1.00055114281919,5.052518855383509
6.12346368,1.0005130110181726,4.853008319195597
6.125750272,1.000442284315626,4.654161421609137
6.128036352,1.0003432914308268,4.456326939273894
6.130322944,1.000222146692928,4.259963692731709
6.132609536,1.0000865828501537,4.065291665473992
6.134895616,0.9999450941398933,3.872466912317875
6.137182208,0.9998065188113799,3.6815110315616173
6.139468288,0.9996795445196722,3.4923133485066153
6.14175488,0.9995723029321751,3.3046636653436634
6.14404096,0.9994913372785683,3.118202904855151
6.146327552,0.9994418750527567,2.9325461476222197
6.148614144,0.9994269755299512,2.7471815743806958
6.150900224,0.9994476847970545,2.561621501794443
6.153186816,0.9995026340510159,2.375349203115709
6.155472896,0.9995882308573035,2.187911051156791
6.157759488,0.9996994589061649,1.9988840074031051
6.160045568,0.9998290774059475,1.8079496068232803
6.16233216,0.9999690253546276,1.6148957804806117
6.16461824,1.0001104071133895,1.4196526368503448
6.166904832,1.0002445112211555,1.2222587771693487
6.169191424,1.0003628929527855,1.022851157429439
6.171477504,1.000457904348392,0.8217651081577168
6.173764096,1.0005238427954932,0.6193230937232579
6.176050176,1.000556380314771,0.41602624840580193
6.178336768,1.0005535647534822,0.2123372320256257
6.180622848,1.000515591942478,0.00878668021184737
6.18290944,1.000444791987084,-0.19415789509119102
6.18519552,1.0003455250613071,-0.39604804484376144
6.187482112,1.0002241942012116,-0.5964823335678986
6.189768704,1.0000880419387739,-0.7952359067258281
6.192054784,0.9999460062356963,-0.9921457573624478
6.194341376,0.9998068575819433,-1.1871765584696587
6.196627456,0.9996793162144216,-1.3804638497106732
6.198914048,0.9995713309780287,-1.5721959838581845
6.201200128,0.9994897920857087,-1.7627174170448596
6.20348672,0.9994398200184188,-1.9524617629476055
6.205773312,0.9994244128098242,-2.1419225539702462
6.208059392,0.9994448136647012,-2.331560739251695
6.210345984,0.9994996937645098,-2.521919330627416
6.212632064,0.9995854643064045,-2.71346801657482
6.214918656,0.9996968695906551,-2.9066235934994293
6.217204736,0.999826783703857,-3.101677572840581
6.219491328,0.9999672181618827,-3.2988858045765386
6.221777408,1.0001092808527285,-3.498272259691382
6.224064,1.000244009018502,-3.6998484959893547
6.226350592,1.0003630333204556,-3.9034231283361978
6.228636672,1.0004588631685123,-4.108737620308033
6.230923264,1.0005254310008875,-4.315397368258366
6.233209344,1.0005586434911258,-4.522955944837892
6.235495936,1.000556283076497,-4.730899189059836
6.237782016,1.000518720472882,-4.938734061659252
6.240068608,1.0004479348040098,-5.14596766808189
6.2423552,1.0003487133212536,-5.352143076343613
6.24464128,1.00022710476638,-5.556905410615112
6.246927872,1.0000906405113392,-5.759970697330612
6.249213952,0.9999480653370222,-5.961193552224462
6.251500544,0.9998081136071151,-6.160561101511786
6.253786624,0.9996797565142947,-6.358144647657166
6.256073216,0.9995709772347136,-6.5541938603914955
6.258359296,0.9994885594991716,-6.749038689063211
6.260645888,0.9994377453058,-6.943088018970372
6.26293248,0.9994218605519499,-7.136841780101832
6.26521856,0.9994417045277659,-7.3307962291090805
6.267505152,0.9994961918127612,-7.525464253876598
6.269791232,0.999581719395355,-7.721310509022829
6.272077824,0.9996931110969036,-7.918776375071919
6.274363904,0.9998233692703735,-8.118159723139089
6.276650496,0.9999642676788099,-8.319700465012666
6.278937088,1.0001068948823195,-8.523473592503493
6.281223168,1.0002424798770917,-8.729424811429645
6.28350976,1.0003622942297146,-8.937416128286477
6.28579584,1.0004591499137452,-9.147124653389957
6.288082432,1.0005265799544902,-9.358218694117483
6.290368512,1.0005606391593833,-9.570231371657398
6.292655104,1.0005590969428855,-9.782666692758948
6.294941184,1.0005219829755496,-9.995001435835022
6.297227776,1.0004518106332145,-10.206737330416615
6.299514368,1.0003527074907435,-10.417445623606653
6.301800448,1.000231003840864,-10.626733972221114
6.30408704,1.0000942805977404,-10.83435460632547
6.30637312,0.999951052166059,-11.040131519356352
6.308659712,0.9998104480280385,-11.24401840261222
6.310945792,0.9996812372179188,-11.446154493246661
6.313232384,0.9995714953103141,-11.64675645386747
6.315518464,0.9994879865785626,-11.846126954233858
6.317805056,0.9994362047918738,-12.04470918594847
6.320091648,0.999419258198996,-12.24297579236033
6.322377728,0.9994383210722273,-12.441435187749846
6.32466432,0.9994920974996475,-12.640602753650548
6.3269504,0.9995773426552643,-12.840979766079503
6.329236992,0.9996885817227772,-13.042971302880492
6.331523072,0.9998189386657008,-13.246888396252862
6.333809664,0.9999601663918709,-13.45294881257517
6.336096256,1.0001034993375706,-13.661255002234052
6.338382336,1.0002399498780763,-13.871786706709306
6.340668928,1.0003608528893562,-14.084352616379263
6.342955008,1.0004587783642824,-14.298697686299896
6.3452416,1.0005275051885323,-14.514433222539544
6.34752768,1.0005626992618788,-14.731112937586094
6.349814272,1.000562187555513,-14.948228045002482
6.352100352,1.0005260164455185,-15.16526092631926
6.354386944,1.0004563759783986,-15.381744677424154
6.356673536,1.0003576569586492,-15.597192582768404
6.358959616,1.0002360058789976,-15.811244628005173
6.361246208,1.0000989577160662,-16.023608385838628
6.363532288,0.9999552878826415,-16.234145824166976
6.36581888,0.9998139411972492,-16.442811042251865
6.36810496,0.9996835623061324,-16.649721279512384
6.370391552,0.9995726121680462,-16.855063547825193
6.372678144,0.9994879430261311,-17.059174061049802
6.374964224,0.9994347551981424,-17.262500455368844
6.377250816,0.9994165679269377,-17.46546671436204
6.379536896,0.9994344694820247,-17.668667682242702
6.381823488,0.9994873321252549,-17.872532729200973
6.384109568,0.999571975028138,-18.077618668286952
6.38639616,0.9996829378927659,-18.28428218848436
6.38868224,0.9998132248673536,-18.492917214762315
6.390968832,0.9999549654603526,-18.703693404688433
6.393255424,1.0000989081275098,-18.91673740813212
6.395541504,1.0002363445994458,-19.13198583648912
6.397828096,1.0003584867538462,-19.349341024106877
6.400114176,1.0004577816162126,-19.568477626909683
6.402400768,1.000527933088954,-19.7890389425118
6.404686848,1.000564575415203,-20.010573968018107
6.40697344,1.0005653742603104,-20.23257596304698
6.409260032,1.0005304689102639,-20.45451199846195
6.411546112,1.0004616566645885,-20.675910340768173
6.413832704,1.0003635883280584,-20.896314432348525
6.416118784,1.000242181689238,-21.115327611000875
6.418405376,1.0001050557702875,-21.332672074621165
6.420691456,0.9999608547933467,-21.548166612623078
6.422978048,0.9998186060560463,-21.76181283123309
6.425264128,0.9996872100671765,-21.973668226574674
6.42755072,0.9995747662991088,-22.183975258720288
6.429837312,0.9994885108336878,-22.39303780759225
6.432123392,0.9994337878066265,-22.601282353571246
6.434409984,0.9994140627067997,-22.809177186001143
6.436696064,0.9994305481046999,-23.01723445039695
6.438982656,0.9994821669165023,-23.22599690402878
6.441268736,0.9995658290109136,-23.435929308190232
6.443555328,0.9996762545612792,-23.647502661972712
6.44584192,0.9998064982496364,-23.86100216503518
6.448128,0.9999483726465325,-24.076649656707932
6.450414592,1.0000930976174258,-24.294582227190116
6.452700672,1.0002315464863598,-24.51475591408946
6.454987264,1.000355065879175,-24.737039702716167
6.457273344,1.000455935286786,-24.961138140054956
6.459559936,1.0005278407828202,-25.186687411897086
6.461846016,1.0005661614402783,-25.41323581243646
6.464132608,1.0005688411909115,-25.6402944750842
6.4664192,1.000535298038452,-25.867316716893395
6.46870528,1.0004677151860732,-26.09384174683815
6.470991872,1.0003705342525537,-26.319359871545107
6.473277952,1.0002495721381839,-26.543531109172115
6.475564544,1.000112483722554,-26.76600943840168
6.477850624,0.9999678086639543,-26.986694678688675
6.480137216,0.9998246119323233,-27.205502880501015
6.482423296,0.9996918743476381,-27.42250547696663
6.484709888,0.9995778677124257,-27.63793646684491
6.48699648,0.9994897123646049,-27.852117616698276
6.48928256,0.9994331498264841,-28.065454081941155
6.491569152,0.9994115061134796,-28.27841632943359
6.493855232,0.9994261978397766,-28.491550896880536
6.496141824,0.9994763396756065,-28.705353227538424
6.498427904,0.9995588678856292,-28.92033393783553
6.500714496,0.9996684570291309,-29.136906605374193
6.503001088,0.9997984490916536,-29.355404414613705
6.505287168,0.9999405402378297,-29.576073437735527
6.50757376,1.0000859718068535,-29.799038605575415
6.50985984,1.0002254938293607,-30.024270853377892
6.512146432,1.0003506240869153,-30.251615297870035
6.514432512,1.0004532701664834,-30.480825598354915
6.516719104,1.0005272185275589,-30.71149000107754
6.519005184,1.0005677142570288,-30.943220642257213
6.521291776,1.0005721811309174,-31.175475392709608
6.523578368,1.0005405394272109,-31.407754010600407
6.525864448,1.0004745159392987,-31.639503537772153
6.52815104,1.000378393518643,-31.870341834267414
6.53043712,1.0002580482167944,-32.09981318923437
6.532723712,1.000121070297503,-32.327635680657906
6.535009792,0.9999759612658744,-32.55362156364054
6.537296384,0.9998317686282797,-32.77774801318207
6.539582976,0.9996977149684552,-33.000074968786166
6.541869056,0.9995818138954614,-33.220802296179464
6.544155648,0.9994917305244008,-33.44023647580943
6.546441728,0.9994328331246489,-33.65881759210012
6.54872832,0.9994088928937274,-33.877018464704385
6.5510144,0.9994215647064228,-34.09533802434946
6.553300992,0.9994698343428632,-34.31430482216457
6.555587072,0.999550876194411,-34.53442983910611
6.557873664,0.9996594061694379,-34.75611337987463
6.560160256,0.9997889249618601,-34.979746656608654
6.562446336,0.9999311098138218,-35.205545477358854
6.564732928,1.0000772346807534,-35.43365993414635
6.567019008,1.0002180449475935,-35.664032252064786
6.5693056,1.0003448864035493,-35.89656284611389
6.57159168,1.0004495395139021,-36.13097658792031
6.573878272,1.0005257750271463,-36.366902524639954
6.576164864,1.000568728386778,-36.60391783546628
6.578450944,1.0005755938350578,-36.84149835513315
6.580737536,1.0005460570406182,-37.079119599743024
6.583023616,1.0004820004582202,-37.316287801805615
6.585310208,1.000387252908656,-37.55253995660104
6.587596288,1.0002677586109943,-37.787447318950534
6.58988288,1.0001310418738203,-38.02071110295701
6.59216896,0.9999855196859313,-38.25216784067015
6.594455552,0.9998404693981552,-38.481766079606466
6.596742144,0.9997048497347998,-38.70951658065773
6.599028224,0.999586974878509,-38.935658388663256
6.601314816,0.9994944952533641,-39.16050137924123
6.603600896,0.999433163485529,-39.3844200388108
6.605887488,0.9994065761091326,-39.607948773091515
6.608173568,0.9994167224357174,-39.83157819309974
6.61046016,0.9994628221440321,-40.05581660968182
6.612746752,0.9995420528956955,-40.28116250254266
6.615032832,0.9996494906759458,-40.50808710495324
6.617319424,0.9997782650354421,-40.73691153752315
6.619605504,0.9999204082251013,-40.967936325871605
6.621892096,1.0000672124742105,-41.2012385214732
6.624178176,1.0002093722792589,-41.43685759266568
6.626464768,1.0003379282817921,-41.674642395272095
6.628750848,1.0004449517434164,-41.914345289130004
6.63103744,1.0005238324201722,-42.15558575449324
6.633324032,1.000569391103895,-42.39796043068111
6.635610112,1.0005789990379605,-42.64093525432592
6.637896704,1.0005520251481932,-42.884031912285614
6.640182784,1.0004901639068793,-43.12665426455707
6.642469376,1.0003970168077794,-43.368415441934296
6.644755456,1.0002787086590696,-43.60886082859391
6.647042048,1.0001424763115787,-43.847697512762316
6.649328128,0.9999966689082788,-44.08471082542929
6.65161472,0.9998505545607087,-44.31982818618601
6.653901312,0.9997132332955055,-44.55313463922144
6.656187392,0.9995933218107423,-44.784774179100765
6.658473984,0.9994981749946881,-45.01508339391416
6.660760064,0.999433944453544,-45.24446745489235
6.663046656,0.9994045483705444,-45.4733996295869
6.665332736,0.9994118088494743,-45.70236331544861
6.667619328,0.9994553866045597,-45.93190758130408
6.66990592,0.9995324351996585,-46.16255812727938
6.672192,0.999638276761177,-46.39473941133507
6.674478592,0.999766225638855,-46.62883021564438
6.676764672,0.9999083232896222,-46.86507529452579
6.679051264,1.0000557087925728,-47.10364666648568
6.681337344,1.0001991260199776,-47.344505976949485
6.683623936,1.0003297212984323,-47.58755293066875
6.685910016,1.000439349264845,-47.8325685187867
6.688196608,1.0005210435189056,-48.079181340766056
6.6904832,1.000569756994408,-48.32694819410494
6.69276928,1.0005824867149729,-48.575377657240175
6.695055872,1.0005583876620627,-48.82393409442318
6.697341952,1.0004990636320168,-49.07211329429727
6.699628544,1.0004080104371877,-49.31942466860405
6.701914624,1.0002909363082257,-49.56546231398582
6.704201216,1.0001552705563823,-49.80989015832042
6.706487808,1.0000093800349468,-50.0525166801419
6.708773888,0.9998623183253553,-50.29323489646595
6.71106048,0.999723242176995,-50.53210764987237
6.71334656,0.9996010379153479,-50.76931200535223
6.715633152,0.9995030797369164,-51.005132957928744
6.717919232,0.9994355661276172,-51.23998781741053
6.720205824,0.9994028460167845,-51.474320492454595
6.722491904,0.9994068964613815,-51.70867534344591
6.724778496,0.9994475490889566,-51.943569535631696
6.727065088,0.999522193795221,-52.17949997521536
6.729351168,0.999626201641293,-52.41694779515965
6.73163776,0.9997529492916657,-52.65626597565895
6.73392384,0.9998948185146804,-52.897744294818196
6.736210432,1.0000428040484877,-53.14151374584292
6.738496512,1.0001876536666443,-53.38763362272101
6.740783104,1.0003203093480733,-53.63596350989444
6.743069696,1.000432664033265,-53.88626587179836
6.745355776,1.000517424931706,-54.138201050421294
6.747642368,1.0005697336567194,-54.39133992451671
6.749928448,1.0005858552325082,-54.64519274156247
6.75221504,1.0005651094284407,-54.8992320417539
6.75450112,1.0005086649776547,-55.152932584205736
6.756787712,1.0004199446628006,-55.40580126941119
6.759073792,1.0003046601529515,-55.65743276580268
6.761360384,1.0001696805187863,-55.9074529916622
6.763646976,1.0000236510112388,-56.15568061363232
6.765933056,0.9998757091801239,-56.40198302043165
6.768219648,0.9997347961428341,-56.64644949357245
6.770505728,0.9996100688227877,-56.88918781540682
6.77279232,0.9995089877044547,-57.13051341549212
6.7750784,0.9994380127286274,-57.37082015976148
6.777364992,0.9994016670220154,-57.610566766049295
6.779651584,0.9994021324531276,-57.8502475397491
6.781937664,0.9994394157464195,-58.09043275883016
6.784224256,0.999511106934026,-58.331601027604904
6.786510336,0.9996129376647247,-58.57423090369645
6.788796928,0.9997383478868764,-58.818732147466534
6.791083008,0.9998797595442822,-59.06537771759106
6.7933696,1.0000281787198189,-59.314305378338545
6.79565568,1.0001743053449308,-59.56555488997277
6.797942272,1.000309301177566,-59.81906397861836
6.800228864,1.0004245166675176,-60.07458162642622
6.802514944,1.0005128146190043,-60.33178251689439
6.804801536,1.0005687702542367,-60.59022761611398
6.807087616,1.0005888377192333,-60.84944497909901
6.809374208,1.0005717896782793,-61.10888693690945
6.811660288,1.0005186660189733,-61.3680214828676
6.81394688,1.0004326128252317,-61.626389824446825
6.81623296,1.0003192006362325,-61.88352902980331
6.818519552,1.0001853464123656,-62.13910020637241
6.820806144,1.0000394434668995,-62.39284864922
6.823092224,0.9998904931547069,-62.644702145523446
6.825378816,0.9997478619425672,-62.894663321801
6.827664896,0.9996203721407617,-63.14288551836531
6.829951488,0.9995160007901489,-63.38964619132444
6.832237568,0.9994413115862959,-63.63531158693118
6.83452416,0.9994008906435687,-63.88035411894097
6.836810752,0.9993973099736139,-64.12530899774434
6.839096832,0.9994308863940385,-64.3706423740573
6.841383424,0.9994994158731755,-64.61697440539358
6.843669504,0.9995986560191258,-64.86467658186714
6.845956096,0.9997224926374575,-65.11422393727166
6.848242176,0.9998631657087312,-65.36585464985293
6.850528768,1.0000119858558338,-65.61980146706946
6.852814848,1.0001595121078588,-65.87608631835067
6.85510144,1.0002967067558208,-66.13463146591575
6.857388032,1.0004150403994043,-66.39521451202899
6.859674112,1.00050710646793,-66.65751626343327
6.861960704,1.0005671273633774,-66.92113273574334
6.864246784,1.0005913534130975,-67.18555756379708
6.866533376,1.0005784287569313,-67.45027390478118
6.868819456,1.0005290004961815,-67.71473274283292
6.871106048,1.000446129971199,-67.97845366447564
6.87339264,1.0003349108177266,-68.24096057129749
6.87567872,1.0002023552953592,-68.50194496206265
6.877965312,1.0000566777494573,-68.76113417089599
6.880251392,0.9999069710998396,-69.01838844074486
6.882537984,0.9997624904251853,-69.27371063634072
6.884824064,0.9996323138871983,-69.52727790416735
6.887110656,0.9995244324682774,-69.77931772127245
6.889396736,0.9994456380656074,-70.03021029657664
6.891683328,0.9994009140849103,-70.28041475696156
6.89396992,0.9993930396213135,-70.530417483448
6.896256,0.9994223569968373,-70.78080594311339
6.898542592,0.9994872891849895,-71.03205522393839
6.900828672,0.9995836449842198,-71.28467284599687
6.903115264,0.9997056050414939,-71.53904593863744
6.905401344,0.9998453523903229,-71.79552182738102
6.907687936,0.999994281532504,-72.05427192166472
6.909974528,1.000143177987768,-72.31534959970226
6.912260608,1.000282806068583,-72.5787349648205
6.9145472,1.0004043275129393,-72.84415912017295
