freq,mag,phase
6.0,0.999978416730747,134.31667898052996
6.012638208,0.9999686555516156,133.44915685495766
6.025276416,0.9999599533620622,132.58185431009773
6.037914624,0.9999531404226893,131.71465566816724
6.050552832,0.9999484959181768,130.8476056200412
6.06319104,0.9999461799295243,129.98062611707806
6.075829248,0.9999462587431327,129.1137337554295
6.088467456,0.9999489939784366,128.2468595973671
6.101105664,0.9999539683143566,127.3800180051487
6.113743872,0.9999611392893918,126.51313523202538
6.12638208,0.9999700864580979,125.64620451316357
6.139020288,0.9999804874680018,124.77924101248935
6.151659008,0.9999918997192963,123.91218663414762
6.164297216,1.0000038472218369,123.0450403354609
6.176935424,1.0000156286208466,122.17782167493998
6.189573632,1.0000270286420003,121.31050810882404
6.20221184,1.0000372741036956,120.44312566541552
6.214850048,1.000046067248248,119.5756774202466
6.227488256,1.0000530637751288,118.70820187312832
6.240126464,1.0000578015623285,117.84071170675792
6.252764672,1.0000602988447016,116.97323443192174
6.26540288,1.000060183255513,116.10579276815139
6.278041088,1.0000575394024809,115.23843320655303
6.290679296,1.0000526108666117,114.37118623323549
6.303317504,1.0000455005807636,113.50406773199504
6.315955712,1.0000364499084382,112.6370963620935
6.32859392,1.0000260343060896,111.7703043962165
6.341232128,1.0000144582577095,110.9037031196088
6.353870336,1.000002466016515,110.0373101949091
6.366508544,0.9999906016449241,109.17112506813204
6.379146752,0.9999790839010257,108.30513465942519
6.39178496,0.999968673087493,107.43934147518095
6.404423168,0.9999596677153161,106.57372036575583
6.417061376,0.9999526270975199,105.70826765457079
6.429700096,0.9999477502185872,104.84294058913662
6.442338304,0.9999452784132621,103.97770804345129
6.454976512,0.9999452471966187,103.11258356126952
6.46761472,0.9999478277008907,102.24748838535653
6.480252928,0.9999528409696764,101.38240810686725
6.492891136,0.9999598758726884,100.51734106414939
6.505529344,0.9999688698261503,99.652213566741
6.518167552,0.9999794139763443,98.78705866212118
6.53080576,0.9999910176106342,97.9218095060975
6.543443968,1.0000030884605517,97.05650758242439
6.556082176,1.0000152279684325,96.19109067340011
6.568720384,1.0000268426984689,95.32562392090509
6.581358592,1.000037340762769,94.46008394498872
6.5939968,1.0000465009838806,93.59448179127355
6.606635008,1.0000537022319511,92.72885537026379
6.619273216,1.0000586922310921,91.8632143916313
6.631911424,1.0000612819486412,90.99759677712093
6.644549632,1.0000614243244534,90.13200387710243
6.65718784,1.0000588756013307,89.26652945444654
6.669826048,1.000054021872738,88.40112569959118
6.682464256,1.0000469653301278,87.53587852921795
6.695102464,1.0000377946349426,86.67080268309842
6.707740672,1.0000272739762355,85.80589067591781
6.720379392,1.0000156068399793,84.94119896131824
6.7330176,1.0000033989774615,84.07669861132862
6.745655808,0.9999911863447852,83.21241429493666
6.758294016,0.9999794205584923,82.34834940262397
6.770932224,0.9999686646875457,81.4844682296821
6.783570432,0.9999594714244132,80.62077795662215
6.79620864,0.9999521175454192,79.75726085812614
6.808846848,0.9999468746223183,78.89389281140026
6.821485056,0.9999441506284321,78.03062394108792
6.834123264,0.999943944440359,77.16746358738467
6.846761472,0.9999463795912645,76.30433492425352
6.85939968,0.9999512309048932,75.4412186081396
6.872037888,0.9999583844481907,74.57811704777258
6.884676096,0.9999674673391724,73.71498778320837
6.897314304,0.9999780856039644,72.85179028156618
6.909952512,0.999989837003313,71.98853816075426
6.92259072,1.000002129513832,71.12520128165352
6.935228928,1.0000145244576106,70.2617907376986
6.947867136,1.0000264479619339,69.39829789927384
6.960505344,1.0000373614303721,68.53471003164539
6.973143552,1.0000467975425313,67.67108690638172
6.98578176,1.000054388508522,66.8074229720581
6.998419968,1.000059705857105,65.94374645345808
7.011058688,1.0000625656754092,65.08010019317236
7.023696896,1.0000628308197792,64.21646963843367
7.036335104,1.0000605620923888,63.35293441973504
7.048973312,1.000055724267291,62.48951779695846
7.06161152,1.0000486672954148,61.62622238680965
7.074249728,1.0000395418117531,60.763094516982605
7.086887936,1.0000287754517516,59.90015030830387
7.099526144,1.0000169850063865,59.037402516657345
7.112164352,1.0000044666201287,58.174857184597705
7.12480256,0.9999918962475652,57.31255190851049
7.137440768,0.9999798868915891,56.45043775570128
7.150078976,0.9999686880703901,55.5885408528338
7.162717184,0.9999590765327155,54.72683340839432
7.175355392,0.9999513392877799,53.86527516801645
7.1879936,0.9999457661688997,53.00388307311999
7.200631808,0.9999427158949844,52.14258171936333
7.213270016,0.9999423434540022,51.2813957769555
7.225908224,0.99994454095286,50.420261753309084
7.238546432,0.9999493625080376,49.55912734698393
7.25118464,0.9999564246332766,48.697995340251
7.263822848,0.9999656012135572,47.83683238246999
7.276461056,0.9999763813909641,46.975617435928726
7.289099776,0.9999883508152931,46.11431536823386
7.301737984,1.0000009608561664,45.25294021704291
7.314376192,1.0000136860098556,44.39148947340308
7.3270144,1.0000260118621633,43.52992247572263
7.339652608,1.0000373981545267,42.668281154141084
7.352290816,1.00004722807324,41.806586011768836
7.364929024,1.0000552223707173,40.94483025729718
7.377567232,1.0000608923914804,40.08305848149134
7.39020544,1.0000641317553864,39.22130405139474
7.402843648,1.0000646260779422,38.35957473136436
7.415481856,1.000062531749677,37.49792255443194
7.428120064,1.0000578023501572,36.63636993750607
7.440758272,1.0000507428006356,35.774938246524236
7.45339648,1.000041511510236,34.913686020270845
7.466034688,1.00003058875904,34.05259362444681
7.478672896,1.0000185288191579,33.191696343652595
7.491311104,1.0000056863321867,32.3310152375845
7.503949312,0.9999927167173418,31.470555587225057
7.51658752,0.9999801683734222,30.61030696686465
7.529225728,0.9999686749274376,29.750239247335866
7.541863936,0.9999585613189668,28.890386516961637
7.554502144,0.9999503068104958,28.030693639760376
7.567140352,0.9999444307202087,27.171133310336792
7.579779072,0.9999410176911037,26.31170143562511
7.59241728,0.9999403553383971,25.45233653752561
7.605055488,0.9999423536759318,24.59303554242895
7.617693696,0.9999470091201081,23.73375262725884
7.630331904,0.9999541976308901,22.874443062199163
7.642970112,0.9999634323969261,22.01510136632387
7.65560832,0.9999744903085244,21.15568970191574
7.668246528,0.999986750766523,20.296197628789052
7.680884736,0.999999751384528,19.436603016273178
7.693522944,1.0000129111615423,18.576908964454695
7.706161152,1.0000257010376405,17.717112635124487
7.71879936,1.0000375568903654,16.857223203901338
7.731437568,1.000047895392529,15.99726830255694
7.744075776,1.0000563806163334,15.13723816489284
7.756713984,1.0000624961432518,14.277159818706098
7.769352192,1.0000660110267778,13.41708751935955
7.7819904,1.0000668548254525,12.557034345151973
7.794628608,1.0000648590615866,11.697055243910254
7.807266816,1.0000602083311831,10.837162017329394
7.819905024,1.0000530356660693,9.977372151985948
7.832543232,1.0000437054426718,9.117747509151547
7.84518144,1.0000326025745325,8.258311250213147
7.85782016,1.000020086514178,7.399031639980612
7.870458368,1.000006812856341,6.539976404140985
7.883096576,0.9999934010131984,5.681128041521423
7.895734784,0.9999803955844502,4.822484033998633
7.908372992,0.9999682964375015,3.9640469179963906
7.9210112,0.9999575683560618,3.105776839153018
7.933649408,0.9999489498402243,2.247698354899349
7.946287616,0.999942647839947,1.3897450614845706
7.958925824,0.9999389005855166,0.5319100649275608
7.971564032,0.999937970505322,-0.32585985243865173
7.98420224,0.9999398202904292,-1.1835883404670124
7.996840448,0.999944456678453,-2.0413090106622445
8.009478656,0.9999515743888805,-2.8990529153450133
8.022116864,0.9999610715275501,-3.756833293464194
8.034755072,0.9999724035812096,-4.614712636748008
8.04739328,0.9999850069602648,-5.472697080543938
8.060031488,0.9999985445024966,-6.330778182012024
8.072669696,1.0000123211627443,-7.1889760226845
8.085307904,1.0000256957885205,-8.047297534774625
8.097946112,1.0000380114597958,-8.905739764906373
8.11058432,1.0000488854702805,-9.764270462155023
8.123222528,1.0000578343135336,-10.62289127241037
8.135860736,1.0000643828042948,-11.481553638568064
8.148499456,1.0000683125193779,-12.340241318240015
8.161137664,1.0000694099330032,-13.198912536600696
8.173775872,1.0000676423905088,-14.057547927784269
8.18641408,1.0000630602505716,-14.916109126740448
8.199052288,1.0000557226351723,-15.7745409016483
8.211690496,1.000046159107144,-16.632851812689342
8.224328704,1.0000345792352157,-17.49098722623571
8.236966912,1.0000217594616687,-18.34893282547055
8.24960512,1.000007969883049,-19.20669287702993
8.262243328,0.9999939465532864,-20.064241614228482
8.274881536,0.9999802999825306,-20.921600965230898
8.287519744,0.9999675798399701,-21.778749007803565
8.300157952,0.9999563228797701,-22.635723238543456
8.31279616,0.9999471438356085,-23.492536418280544
8.325434368,0.9999402668102919,-24.349212006968305
8.338072576,0.9999362039525742,-25.205794359338313
8.350710784,0.9999350332805411,-26.062282963298614
8.363348992,0.9999367562585217,-26.918771702851572
8.3759872,0.9999413757520841,-27.775253600800404
8.388625408,0.9999487701914141,-28.63175705403121
8.401263616,0.9999584442074803,-29.488344098380676
8.413901824,0.9999701256992352,-30.345024203839944
8.426540032,0.9999833172679734,-31.20181650516496
8.439178752,0.9999974123714518,-32.05874096498483
8.45181696,1.0000116467070443,-32.91581454603328
8.464455168,1.0000257201757095,-33.773013484247016
8.477093376,1.0000387222816036,-34.63034901140528
8.489731584,1.0000502315924442,-35.48780162795861
8.502369792,1.0000597903731188,-36.34535632223496
8.515008,1.0000668241453,-37.2029849066905
8.527646208,1.0000711356402388,-38.060645154734424
8.540284416,1.0000724870529067,-38.918310650543255
8.552922624,1.0000707578410213,-39.77593758578817
8.565560832,1.0000660188452168,-40.63351786249074
8.57819904,1.0000586215593275,-41.49099842255912
8.59083776,1.0000487156460054,-42.348334473855104
8.603475968,1.0000368345473647,-43.20552020321616
8.616114176,1.00002341178011,-44.06254057515427
8.628752384,1.000009023800993,-44.91934274594058
8.641390592,0.9999944140275032,-45.775963331693454
8.6540288,0.9999800693294927,-46.63237133881444
8.666667008,0.9999666975988898,-47.48860087419792
8.679305216,0.9999549183293943,-48.34465219683621
8.691943424,0.9999451261816105,-49.200550657761454
8.704581632,0.9999378165582301,-50.05631703878046
8.71721984,0.9999333637480105,-50.91198784975798
8.729858048,0.9999320398117555,-51.76759397649971
8.742496256,0.9999336937415316,-52.62319037674261
8.755134464,0.9999383494496759,-53.478796915555705
8.767772672,0.9999459425832289,-54.33445605652551
8.78041088,0.9999559329372013,-55.19019581669528
8.793049088,0.9999680949414074,-56.04604250162199
8.805687296,0.9999818216182038,-56.90203021612924
8.818325504,0.9999965028162974,-57.758175449851834
8.830963712,1.000011469791764,-58.614480056911454
8.84360192,1.0000261892766682,-59.470930836616006
8.856240128,1.000039851336173,-60.32754512648994
8.868878336,1.0000519891959228,-61.184283033112
8.881516544,1.0000620873379429,-62.04116012908598
8.894154752,1.0000695431650868,-62.89810234934823
8.90679296,1.000074204465214,-63.755109606967416
8.919431168,1.000075636401174,-64.61213849443621
8.932069376,1.0000739312062392,-65.46916741707803
8.944707584,1.0000692380798297,-66.32611457275378
8.957345792,1.0000615929840018,-67.18299103093149
8.969984,1.0000512474637047,-68.03973450820536
8.982622208,1.000038788565865,-68.89633768183519
8.995260416,1.000024855229952,-69.75277350133251
9.007898624,1.0000098363816012,-70.60900922689109
9.020536832,0.9999944482298068,-71.46504741118179
9.03317504,0.9999793760450549,-72.32088470684987
9.045813248,0.9999653895621711,-73.17654796085654
9.058451456,0.9999529503910902,-74.0320316191259
9.071089664,0.999942605899373,-74.88736416643823
9.083727872,0.9999348558525933,-75.7425786577637
9.09636608,0.9999301189823153,-76.59770799772603
9.109004288,0.9999284916708744,-77.45276910941139
9.121642496,0.9999301992190954,-78.30783620615257
9.134280704,0.9999350757607833,-79.162927623713
9.146919936,0.9999428268769112,-80.01807604733827
9.159558144,0.9999533469501115,-80.87333007992812
9.172196352,0.999965992660122,-81.7287153205548
9.18483456,0.9999803175990082,-82.58424417315683
9.197472768,0.9999956876031143,-83.43994785909283
9.210110976,1.0000113820581211,-84.2958325987353
9.222749184,1.0000268473738676,-85.15188785347823
9.235387392,1.0000412553404079,-86.00813441962794
9.2480256,1.0000540013353165,-86.86452051220863
9.260663808,1.0000645237059274,-87.72104156463416
9.273302016,1.0000725099768586,-88.57767772501485
9.285940224,1.0000774607320175,-89.43437767522198
9.298578432,1.0000790703859608,-90.29111936939006
9.31121664,1.0000774191211403,-91.14784112361782
9.323854848,1.0000725646421895,-92.00454129274667
9.336493056,1.0000645027260335,-92.86114300061011
9.349131264,1.0000538335164555,-93.71764163670161
9.361769472,1.0000408491371937,-94.57398088235166
9.37440768,1.0000261802195272,-95.43015860082599
9.387045888,1.0000105497996952,-96.28615375181482
9.399684096,0.9999943606560082,-97.14194014985848
9.412322304,0.9999786267584889,-97.99755047410751
9.424960512,0.9999637642953786,-98.85295538776865
9.43759872,0.9999506768832807,-99.70819247922375
9.450236928,0.9999398548568935,-100.56328383852023
9.462875136,0.9999316418522612,-101.41826681200229
9.475513344,0.9999266248880295,-102.27314721467432
9.488151552,0.9999248600303157,-103.12800372542709
9.50078976,0.9999265639655118,-103.9828443332166
9.513427968,0.9999315157658425,-104.837723040729
9.526066176,0.9999396821271083,-105.69269268951314
9.538704384,0.9999506070596583,-106.54774690299584
9.551342592,0.9999638081989151,-107.40296562085655
9.5639808,0.999978769083657,-108.25836362070221
9.576619008,0.9999948816628101,-109.11393726887698
9.589257216,1.0000113852680657,-109.96970926926652
9.601895424,1.0000275273612842,-110.82567166368236
9.614533632,1.0000426201719834,-111.68181850025627
9.62717184,1.000056117276974,-112.53813814950412
9.639810048,1.00006724516212,-113.39462527434179
9.652448256,1.0000755981568152,-114.25122348351114
9.665086464,1.000080775238499,-115.10791648838416
9.677724672,1.0000826348914278,-115.9646348476466
9.69036288,1.0000809418693077,-116.82138926449447
9.703001088,1.0000758453618095,-117.6780763369713
9.71564032,1.0000675622199404,-118.5347095428569
9.728278528,1.0000564041495676,-119.39121101109498
9.740916736,1.0000428323163835,-120.24757731261344
9.753554944,1.0000275459388788,-121.10378514675273
9.766193152,1.0000111320926302,-121.95977976286125
9.77883136,0.9999942262703914,-122.81559394154756
9.791469568,0.9999776120576842,-123.67121070737699
9.804107776,0.9999621459233832,-124.52664612094217
9.816745984,0.9999483470311886,-125.38190036273879
9.829384192,0.9999368944122721,-126.23700527103297
9.8420224,0.9999283214568139,-127.09199157504341
9.854660608,0.9999229954462664,-127.94689913543118
9.867298816,0.9999210187398351,-128.80176969333175
9.879937024,0.9999227515104042,-129.65664113227604
9.892575232,0.9999278881984346,-130.51156894820835
9.90521344,0.9999363475940244,-131.36657178554879
9.917851648,0.9999477017478777,-132.22169925181427
9.930489856,0.9999615900308245,-133.07697128176417
9.943128064,0.999977194733673,-133.93244263886118
9.955766272,0.9999940500812279,-134.7881180835839
9.96840448,1.0000112684900693,-135.6440021561656
9.981042688,1.0000281724303375,-136.5001024214673
9.993680896,1.0000440226687668,-137.35640018515787
10.006319104,1.000058129892754,-138.2128720448152
10.018957312,1.0000698945624407,-139.06952813427642
10.03159552,1.000078665763135,-139.9263180082238
10.044233728,1.0000842451137628,-140.78319786877282
10.056871936,1.000086186725943,-141.64013560855005
10.069510144,1.0000844398927127,-142.49707045167173
10.082148352,1.000079207106431,-143.35397059662535
10.09478656,1.000070573359011,-144.21082348981474
10.107424768,1.000058915731274,-145.06753909752354
10.120062976,1.0000448314280803,-145.9241229024182
10.132701184,1.0000288465205562,-146.78053656980913
10.145339392,1.0000115949868436,-147.6367471905144
10.1579776,0.999993953146765,-148.49276716563662
10.170615808,0.9999766215113294,-149.34856532185026
10.183254016,0.9999603860871606,-150.20419412966697
10.195892224,0.9999459255109748,-151.0596371250002
10.208530432,0.9999339050128229,-151.91493504200898
10.22116864,0.9999248166060538,-152.7701000677985
10.233806848,0.9999191616057608,-153.62519908675347
10.246445056,0.9999170916209628,-154.48025475268193
10.259083264,0.9999187500186494,-155.335312076216
10.271721472,0.9999241490562994,-156.19041594318884
10.28435968,0.9999328576202939,-157.04561898961683
10.296998912,0.9999447553019308,-157.90096031165078
10.30963712,0.9999590723252795,-158.75646158086013
10.322275328,0.9999754427820943,-159.61216008168708
10.334913536,0.9999930576682653,-160.46807309357044
10.347551744,1.0000110803467617,-161.32421021304393
10.360189952,1.0000287916843318,-162.18055664420066
10.37282816,1.0000454141722428,-163.0371344798794
10.385466368,1.000060138374126,-163.89390833521486
10.398104576,1.00007249576994,-164.7508598040626
10.410742784,1.0000817673808877,-165.60795748926677
10.423380992,1.0000875870689443,-166.46515602961722
10.4360192,1.0000897272478968,-167.32239722850196
10.448657408,1.0000881129701304,-168.1796672637166
10.461295616,1.0000825735292915,-169.0369246099784
10.473933824,1.000073617467807,-169.89407311352545
10.486572032,1.0000615380444278,-170.75112082523506
10.49921024,1.0000467628380998,-171.60802792611523
10.511848448,1.0000300209104034,-172.464737158945
10.524486656,1.0000121016482422,-173.3212796744806
10.537124864,0.9999935273813995,-174.17758658656223
10.549763072,0.9999753791176763,-175.0336894773995
10.56240128,0.9999583166833957,-175.88960361364985
10.575039488,0.9999431196942424,-176.74530744620233
10.587677696,0.9999303660553941,-177.60087348050365
10.600315904,0.9999208091859217,-178.45631190962175
10.612954112,0.9999146834709179,-179.3116586666175
10.62559232,0.9999123347951342,179.83304335131254
10.638230528,0.999913939436815,178.97772104654453
10.650868736,0.9999193773297641,178.12235376379826
10.663506944,0.9999284680979127,177.26689378805585
10.676145152,0.9999407289912771,176.41130097461755
10.68878336,0.9999556772112753,175.5555314246486
10.701421568,0.9999726733559343,174.69956251869613
10.714059776,0.9999910162208228,173.84335836967983
10.726697984,1.000009801693566,172.98694263766816
10.739336192,1.0000283816499065,172.13027428279696
10.7519744,1.0000457285545865,171.27338154402761
10.764612608,1.0000613069684368,170.41627949011058
10.777250816,1.000074311628843,169.55898748138696
10.789889024,1.0000841253487969,168.7015516887181
10.802527232,1.000090376040139,167.84402093417313
10.81516544,1.0000927552532024,166.98641576610012
10.827803648,1.000091227646434,166.1288025887021
10.840441856,1.0000856656294217,165.27121352292397
10.853080064,1.0000765015959263,164.41369936907827
10.865719296,1.0000639765853734,163.55631627985795
10.878357504,1.0000487409769607,162.6990939033089
10.890995712,1.0000312626797498,161.84203723039346
10.90363392,1.0000125548335606,160.98519924304608
10.916272128,0.9999933616240354,160.1285714756595
10.928910336,0.9999743824912761,159.27217741550007
10.941548544,0.9999565039006497,158.4159958422713
10.954186752,0.999940586161076,157.55999962583016
10.96682496,0.9999272340920298,156.7041701639445
10.979463168,0.9999171575565734,155.8484907870298
10.992101376,0.9999107074643337,154.99289903073492
11.004739584,0.9999081909021255,154.1373491051484
11.017377792,0.9999098510132324,153.28179632374327
11.030016,0.9999154436543153,152.42618411755205
11.042654208,0.9999246994553411,151.57050232651653
11.055292416,0.9999375865596055,150.71467011358968
11.067930624,0.999953198141283,149.8586490321557
