freq,mag,phase
6.0,1.0000105741554046,-37.12153294034721
6.04166656,1.0000077288586375,-38.676740861121836
6.08333312,1.0000056252858318,-40.23269243567497
6.125000192,1.0000034571871121,-41.789419114863115
6.166666752,1.0000011152967756,-43.34689416296058
6.208333312,0.9999988677974233,-44.90510401768202
6.249999872,0.9999964225491695,-46.46405778360761
6.291666432,0.9999943003918406,-48.02375760184344
6.333333504,0.9999919844835514,-49.58412484831313
6.375000064,0.9999899209978871,-51.14527091694168
6.416666624,0.9999877726268772,-52.707173492992176
6.458333184,0.9999860124352258,-54.269723754197315
6.499999744,0.99998443926319,-55.833045381743105
6.541666816,0.999982950687196,-57.39705981354219
6.583333376,0.9999816737378107,-58.961778232588436
6.624999936,0.999980769566166,-60.52724194181328
6.666666496,0.999979785696655,-62.093416420114586
6.708333568,0.9999795182563989,-63.6602670451981
6.750000128,0.999979138089411,-65.22782668874031
6.791666688,0.9999792335700922,-66.79610878170138
6.833333248,0.9999796022055153,-68.36504494459622
6.874999808,0.9999802949007212,-69.93469462531463
6.91666688,0.9999811185713964,-71.50502275794842
6.95833344,0.9999823550677603,-73.0760750201168
7.0,0.9999837909536983,-74.6477757697295
7.04166656,0.9999854438300515,-76.2201815213645
7.08333312,0.9999872843591026,-77.79324565269032
7.125000192,0.9999892363743188,-79.36698278854603
7.166666752,0.9999915332208597,-80.94139110174893
7.208333312,0.9999939859561424,-82.51643449119044
7.249999872,0.999996358060249,-84.09212332283879
7.291666432,0.9999989532587461,-85.66846599449607
7.333333504,1.000001470080136,-87.24546481042238
7.375000064,1.0000042505368651,-88.82308843783002
7.416666624,1.0000067732438445,-90.40135979523578
7.458333184,1.0000093666943026,-91.98021633573362
7.500000256,1.0000117204825807,-93.55970413253215
7.541666816,1.0000141910075802,-95.13976985047786
7.583333376,1.0000163309642696,-96.72044760309257
7.624999936,1.0000182876757335,-98.30173868800685
7.666666496,1.0000201539931235,-99.88358051428767
7.708333568,1.0000216791327645,-101.4659976382357
7.750000128,1.0000229538326584,-103.04896381783988
7.791666688,1.0000240311794129,-104.63247877047884
7.833333248,1.000024714025004,-106.21653806163505
7.874999808,1.0000252668089284,-107.80111816686492
7.91666688,1.0000254107180797,-109.3862327554366
7.95833344,1.0000252820568873,-110.9718271396471
8.0,1.000024680331376,-112.55794344381496
8.04166656,1.000023901635133,-114.14453976973175
8.08333312,1.0000228518031957,-115.73158606317038
8.125000192,1.0000213655296666,-117.3191130646931
8.166666752,1.0000196800312846,-118.90707631967213
8.208333312,1.0000177814700155,-120.49550889030205
8.249999872,1.0000155244898283,-122.08435505081944
8.291666432,1.0000131911522514,-123.67361149278791
8.333333504,1.000010655606649,-125.26329223446513
8.375000064,1.0000079215594264,-126.85332637191905
8.416666624,1.0000050480617184,-128.44376389006018
8.458333184,1.0000020903083764,-130.03458512984366
8.499999744,0.999999151706123,-131.62577130222002
8.541666816,0.9999961386875716,-133.21728807997135
8.583333376,0.9999932236720018,-134.80914899241904
8.625000448,0.9999903528977062,-136.40137904337698
8.666667008,0.9999875845352555,-137.99389381059197
8.708333568,0.9999848985424178,-139.58673507659114
8.750000128,0.9999825000094418,-141.1798898727482
8.791666688,0.9999802528445813,-142.77330372768242
8.833333248,0.9999782262401288,-144.3670182565602
8.874999808,0.9999765752151111,-145.96102672211967
8.916666368,0.9999751565081458,-147.55527125476587
8.958332928,0.9999740619110717,-149.14975436694593
8.999999488,0.9999732657400551,-150.7445372979628
9.041667072,0.9999729171044166,-152.3394880196613
9.083333632,0.9999728153422888,-153.93472118289017
9.125000192,0.9999731671795827,-155.53015796254664
9.166666752,0.9999738177499329,-157.12578287113064
9.208333312,0.9999748594004353,-158.72165328136953
9.249999872,0.9999762816957425,-160.31768602809683
9.291666432,0.9999780069913798,-161.9139327208002
9.333332992,0.9999800685268037,-163.51033017275012
9.374999552,0.999982476952047,-165.10687990559256
9.416667136,0.9999850453297394,-166.70360807141597
9.458333696,0.9999879422050961,-168.3004629195035
9.500000256,0.9999910604225637,-169.89747166487186
9.541666816,0.9999942668483562,-171.49460354701273
9.583333376,0.9999976374135395,-173.0918176162371
9.624999936,1.00000104958725,-174.68918305783862
9.666666496,1.0000046364385815,-176.28660876376526
9.708333056,1.0000081522046356,-177.88412367716583
9.749999616,1.0000116496427773,-179.48170068279666
9.791666176,1.0000151384767646,178.92063362522867
9.83333376,1.000018402261425,177.3229636762271
9.87500032,1.0000214193737191,175.72522817173933
9.91666688,1.0000244720356106,174.12749166527118
9.95833344,1.0000270226377337,172.52972578543535
10.0,1.0000294511698422,170.93199926516567
10.04166656,1.0000314884229513,169.3342795412816
10.08333312,1.000033150188726,167.73658633316808
10.12499968,1.0000345206257015,166.13894318925531
10.16666624,1.0000354327570355,164.5413662804463
10.208333824,1.0000358982218212,162.94385651212457
10.250000384,1.0000360068301597,161.34644631861633
10.291666944,1.0000356971291506,159.7491261060471
10.333333504,1.0000348295533061,158.1519402615296
10.375000064,1.000033622496699,156.55486930127125
10.416666624,1.0000319829322528,154.95795916502024
10.458333184,1.0000300313488153,153.36120340585327
10.499999744,1.0000275542220334,151.76461089319102
10.541666304,1.0000248620165344,150.1682176693615
10.583332864,1.0000217054518281,148.57203658570546
10.625000448,1.000018391673846,146.97604869233928
10.666667008,1.0000146424946195,145.38029766194728
10.708333568,1.0000108750778174,143.7847913091086
10.750000128,1.0000069180736422,142.1895147312877
10.791666688,1.000002755022984,140.59452961117938
10.833333248,0.9999985238519761,138.99981804921094
10.874999808,0.9999943517994675,137.40537325658784
10.916666368,0.99999021443733,135.8112462527494
10.958332928,0.9999860793250536,134.21742008940112
11.000000512,0.9999822303678743,132.62388173874882
11.041667072,0.9999784797746742,131.03070948274114
11.083333632,0.9999750182196124,129.43786471095498
11.125000192,0.9999717168861942,127.84535273820178
11.166666752,0.9999690167444063,126.25320027022131
11.208333312,0.999966438891294,124.66141396586123
11.249999872,0.9999644225540538,123.0699811056578
11.291666432,0.9999627432454017,121.47895490371961
11.333332992,0.9999616147919358,119.88828054469268
11.374999552,0.9999610116927693,118.29799590971709
11.416667136,0.9999608823457012,116.70811998795999
11.458333696,0.9999612107250716,115.11864784769348
11.500000256,0.9999621027062426,113.52956437192458
11.541666816,0.9999635585343909,111.94090167324323
11.583333376,0.9999654028393095,110.3526670442232
11.624999936,0.9999678073837851,108.76484641974504
11.666666496,0.9999706981387921,107.17746244469944
11.708333056,0.9999739559547626,105.59049245930227
11.749999616,0.9999776511229073,104.00399689512477
11.791666176,0.9999817708861012,102.41792818728166
11.83333376,0.9999860544359815,100.83231286040862
11.87500032,0.9999907294087,99.24716792888233
11.91666688,0.9999956258002818,97.66247844223022
11.95833344,1.0000005016421054,96.07826307805333
12.0,1.0000055735529563,94.49454115770452
12.04166656,1.0000106436325569,92.91129926859907
12.08333312,1.0000156791213277,91.32854044954398
12.12499968,1.0000206522879456,89.7462882826765
12.16666624,1.0000253968664916,88.16454346344412
12.208333824,1.0000299266810404,86.58331810737579
12.250000384,1.0000341176928738,85.00263180657012
12.291666944,1.0000380923394203,83.42246123214277
12.333333504,1.0000415669921725,81.84282845241468
12.375000064,1.0000445391725339,80.26377565492993
12.416666624,1.0000470357308597,78.68526945831321
12.458333184,1.0000489823675773,77.10732673283036
12.499999744,1.0000504213581045,75.52998056039216
12.541666304,1.0000511226871276,73.95321599182513
12.583332864,1.0000512833347706,72.37705589663801
12.625000448,1.0000508039577936,70.80150274310813
12.666667008,1.0000496704231825,69.22656464344867
12.708333568,1.0000479291386104,67.65225852222524
12.750000128,1.0000455213848438,66.07859664422344
12.791666688,1.000042480717799,64.50558052585896
12.833333248,1.0000388112829393,62.93321176873571
12.874999808,1.0000347077071479,61.361526819726386
12.916666368,1.0000300657548897,59.79049683123192
12.958332928,1.0000249317334966,58.22015541644099
12.999999488,1.0000194763326635,56.65050895089913
13.041667072,1.000013514250394,55.081541865121686
13.083333632,1.0000074390269027,53.51329031599201
13.125000192,1.0000011579688952,51.945744494805986
13.166666752,0.9999947293660258,50.378906311524766
13.208333312,0.9999881556801452,48.81278236958772
13.249999872,0.9999816741425183,47.247390993884906
13.291666432,0.9999753816935968,45.68271208142429
13.333332992,0.9999691848081567,44.11875700319777
13.374999552,0.999963422563207,42.55554047723387
13.416667136,0.9999578967412853,40.99304230162802
13.458333696,0.9999527519092807,39.431286272543424
13.500000256,0.9999482606884587,37.87025752305953
13.541666816,0.9999442779033346,36.309952774553324
13.583333376,0.9999408920946748,34.75036761920695
13.624999936,0.9999382767427991,33.19151709599589
13.666666496,0.9999362710326111,31.63340224431761
13.708333056,0.9999351602827389,30.075979860722867
13.749999616,0.9999348068552351,28.519278845525207
13.791666176,0.9999352993963669,26.96330839456432
13.83333376,0.9999366770886542,25.408029922641287
13.87500032,0.9999388660703507,23.853461169175187
13.91666688,0.9999417789007455,22.29959098644031
13.95833344,0.999945570822608,20.746418192765642
14.0,0.9999501416787578,19.193938349801275
