freq,mag,phase
6.0,1.0008788574010667,61.49322537569691
6.002286592,1.0009006336201447,61.32627532299716
6.004572672,1.000865692752984,61.15941467277905
6.006859264,1.0007759248173105,60.9934446579178
6.009145344,1.0006370603949646,60.82911451506157
6.011431936,1.0004577561987538,60.667073535268585
6.013718016,1.0002492445501658,60.50783577032212
6.016004608,1.000024822015453,60.35169918727978
6.018290688,0.9997984398225958,60.19885222464793
6.02057728,0.9995846197392778,60.0491728867136
6.022863872,0.9993967462701456,59.902418081876355
6.025149952,0.9992468221783198,59.75810640708857
6.027436544,0.9991444094514016,59.6156319813505
6.029722624,0.9990959524176596,59.47425676092846
6.032009216,0.9991045927187397,59.33314899460104
6.034295296,0.9991698049544484,59.1914915076972
6.036581888,0.9992876089909295,59.0485387036692
6.03886848,0.9994505719922933,58.90348723816111
6.04115456,0.9996482966607401,58.755817842098296
6.043441152,0.9998683969178301,58.60511697717944
6.045727232,1.0000969700022924,58.45112037681154
6.048013824,1.0003195198847343,58.29386953252433
6.050299904,1.0005220130041206,58.13350944030617
6.052586496,1.000691633367367,57.970429160839835
6.054872576,1.0008176580029051,57.80518325391306
6.057159168,1.0008920685640565,57.63848487207813
6.05944576,1.0009101438909587,57.47109380221599
6.06173184,1.000870763713995,57.30383537292552
6.064018432,1.0007762219025704,57.137524605171066
6.066304512,1.00063258513695,56.972925786702675
6.068591104,1.0004487365474957,56.81066650077071
6.070877184,1.0002363186712266,56.65127318435073
6.073163776,1.0000086168693165,56.495068276136124
6.075450368,0.9997802158077277,56.34214356702498
6.077736448,0.9995653344081639,56.19243423532988
6.08002304,0.9993777042473639,56.04563354894733
6.08230912,0.9992292748974451,55.90126338147045
6.084595712,0.9991293047786307,55.75868531562428
6.086881792,0.9990843308691787,55.61715831849525
6.089168384,0.999097288750599,55.475863736061896
6.091454464,0.9991671818185176,55.33395586515263
6.093741056,0.9992899263167309,55.19062215391816
6.096027648,0.9994575323559498,55.04517794345672
6.098313728,0.9996595505699012,54.89702693972974
6.10060032,0.9998832387544614,54.74576286192784
6.1028864,1.000114486064774,54.59118975685326
6.105172992,1.0003385141214716,54.43331315732136
6.107459072,1.0005413489769153,54.27228793758896
6.109745664,1.0007100513510134,54.10856007611708
6.112032256,1.0008340789894627,53.94270744002704
6.114318336,1.0009053343921774,53.7753944910008
6.116604928,1.0009195447317458,53.60745501025368
6.118891008,1.0008755783797214,53.43971572209412
6.1211776,1.000776230541736,53.2729563532145
6.12346368,1.000627699402918,53.10800553538665
6.125750272,1.0004393434488172,52.945455910371344
6.128036352,1.0002228805627271,52.78583917198021
6.130322944,0.999992132993918,52.62940092704589
6.132609536,0.9997617043792316,52.47634611884288
6.134895616,0.9995458991495215,52.32648426312229
6.137182208,0.9993586308090215,52.17953167085587
6.139468288,0.9992116191604127,52.03503347557321
6.14175488,0.9991143237304347,51.89225283636304
6.14404096,0.9990729988490623,51.75048512676237
6.146327552,0.9990901965323562,51.6088985343735
6.148614144,0.9991649361486524,51.46662574274942
6.150900224,0.999292433321009,51.32283658331334
6.153186816,0.9994648514879785,51.176867048059286
6.155472896,0.9996711451017228,51.02814984405808
6.157759488,0.999898342991637,50.876228473648105
6.160045568,1.000132122987279,50.72095094530545
6.16233216,1.0003577206783971,50.56234605230123
6.16461824,1.0005607909767478,50.40058104971268
6.166904832,1.0007285336998029,50.23610553367868
6.169191424,1.0008503338715469,50.06951289405168
6.171477504,1.000918499971778,49.901526067385795
6.173764096,1.00092870608198,49.732951882610244
6.176050176,1.0008801757905423,49.564591382335365
6.178336768,1.0007759412339048,49.39734141925576
6.180622848,1.0006226011882269,49.231930741724575
6.18290944,1.0004296042986818,49.06898927070946
6.18519552,1.0002093283756939,48.90902128001564
6.187482112,0.9999754922754517,48.75231684480467
6.189768704,0.999742928326118,48.59900178738672
6.192054784,0.9995263880919376,48.44890663036512
6.194341376,0.999339434228212,48.30173906870775
6.196627456,0.9991940889733388,48.1569530730351
6.198914048,0.9990995540523647,48.013903891095715
6.201200128,0.9990618416754357,47.871789029324745
6.20348672,0.9990833453372661,47.729802325316406
6.205773312,0.9991628629639988,47.58705428480916
6.208059392,0.9992953941761771,47.44272533072904
6.210345984,0.9994724717792742,47.296132722036056
6.212632064,0.9996830525927147,47.14671159451569
6.214918656,0.9999137742722305,46.99405579675164
6.217204736,1.0001501016654513,46.8379883730763
6.219491328,1.0003771022747456,46.67852955054611
6.221777408,1.0005803817194576,46.51592557327506
6.224064,1.000747110829174,46.350622846533376
6.226350592,1.0008667462386025,46.18319788032541
6.228636672,1.0009317316571609,46.014433136348096
6.230923264,1.0009378447212414,45.84509014593624
6.233209344,1.0008846951132622,45.67606927430361
6.235495936,1.0007756140954485,45.50820846348881
6.237782016,1.0006172867294187,45.342226679651
6.240068608,1.000419874924396,45.17881388693389
6.2423552,1.0001956380929997,45.018419184782616
6.24464128,0.9999587833286714,44.861341480031996
6.246927872,0.9997242066227905,44.70765043734903
6.249213952,0.9995067844467369,44.557234272201725
6.251500544,0.9993203352037574,44.40971624852012
6.253786624,0.9991765908801984,44.26459990182642
6.256073216,0.9990847889079072,44.121148402234
6.258359296,0.9990507223407926,43.97861375949014
6.260645888,0.999076700063868,43.836108859531954
6.26293248,0.9991610013279806,43.69277871535903
6.26521856,0.999298364901847,43.54782290860559
6.267505152,0.9994801825619959,43.4005105847323
6.269791232,0.9996950645827488,43.25028302777831
6.272077824,0.9999292854868881,43.096795726926565
6.274363904,1.0001681461068854,42.93982228385501
6.276650496,1.0003964567170613,42.77943534009979
6.278937088,1.0005999288165974,42.615904931632514
6.281223168,1.0007655563433737,42.44962962978271
6.28350976,1.0008828782225256,42.28130016798429
6.28579584,1.0009446096924763,42.11162081412292
6.288082432,1.0009466628864336,41.94146219993055
6.290368512,1.0008889288909903,41.77166659188727
6.292655104,1.0007748187116006,41.60309376495406
6.294941184,1.0006117702265631,41.43646675129313
6.297227776,1.0004097868037227,41.27246906529917
6.299514368,1.0001816423414178,41.11155165382049
6.301800448,0.9999418247439764,40.95398592678947
6.30408704,0.999705304181096,40.79987370774022
6.30637312,0.9994872443859358,40.64901464212264
6.308659712,0.9993011473744974,40.501076218790494
6.310945792,0.9991591930802023,40.355491632428624
6.313232384,0.9990700722002475,40.211556968682565
6.315518464,0.9990398571589335,40.0684862385109
6.317805056,0.9990701311747854,39.92537103890936
6.320091648,0.9991592797497225,39.781366436418736
6.322377728,0.9993016402594284,39.63565788382862
6.32466432,0.9994882540316151,39.48753802918545
6.3269504,0.999707295658626,39.336414167947105
6.329236992,0.9999449607770098,39.18196167640431
6.331523072,1.0001862593936615,39.024003137624696
6.333809664,1.0004159276010929,38.862590244414
6.336096256,1.00061944129337,38.69799739721907
6.338382336,1.0007840384899833,38.530689784292214
6.340668928,1.0008990924233925,38.36134427380767
6.342955008,1.000957452523878,38.190688173421734
6.3452416,1.000955435892132,38.019597308920886
6.34752768,1.0008930326837955,37.84892859565277
6.349814272,1.0007740777309433,37.67952498792336
6.352100352,1.0006060791315063,37.512166824768954
6.354386944,1.0003995716680227,37.34749705353211
6.356673536,1.0001676364506693,37.185939227223145
6.358959616,0.9999248102143332,37.027821644616665
6.361246208,0.9996863738858122,36.873145053230026
6.363532288,0.9994674831394152,36.72175511768792
6.36581888,0.9992820170385972,36.57329003582963
6.36810496,0.9991417089480096,36.427153989905435
6.370391552,0.9990555751917536,36.28265161640234
6.372678144,0.999028901322906,36.138910786137224
6.374964224,0.9990636838487886,35.99510414441246
6.377250816,0.9991576314553431,35.85032788470891
6.379536896,0.999304954686714,35.70377778406294
6.381823488,0.9994963124693643,35.55471475219334
6.384109568,0.9997194406210748,35.40260809953422
6.38639616,0.9999606208056571,35.24711355503418
6.38868224,1.0002043409413577,35.088029351328416
6.390968832,1.0004353047320678,34.92549140377698
6.393255424,1.0006389427092746,34.759770241167324
6.395541504,1.0008023342192718,34.59133262632029
6.397828096,1.0009151130066136,34.4208503330221
6.400114176,1.0009701747768458,34.2491393335436
6.402400768,1.0009639627460625,34.077001869329045
6.404686848,1.0008969734786046,33.905370898344444
6.40697344,1.0007731238664705,33.73506626283398
6.409260032,1.0006003255367997,33.56687579502439
6.411546112,1.000389370552263,33.40140532691999
6.413832704,1.0001535776654156,33.23914524611808
6.416118784,0.9999077450420921,33.08033330638022
6.418405376,0.9996674748513278,32.92501521092894
6.420691456,0.9994479747260504,32.77300923720224
6.422978048,0.9992629722544185,32.62389827531955
6.425264128,0.9991244330889315,32.477125390345705
6.42755072,0.9990410755830871,32.331893471331455
6.429837312,0.9990182779650328,32.1874386552902
6.432123392,0.9990574093061616,32.04282606390631
6.434409984,0.9991561753622736,31.897169879204803
6.436696064,0.9993083608441414,31.749660048238162
6.438982656,0.9995043081508208,31.59956640269469
6.441268736,0.9997317441057748,31.446386879869276
6.443555328,0.999976242095682,31.28973543210785
6.44584192,1.0002223701469035,31.129470796709025
6.448128,1.0004546144521123,30.96570890027044
6.450414592,1.0006582594762796,30.798726092797192
6.452700672,1.0008205092269138,30.629058477231847
6.454987264,1.0009310076994022,30.45737230028951
6.457273344,1.0009827902401578,30.284468445917298
6.459559936,1.0009724485240796,30.11120389258114
6.461846016,1.0009007483758692,29.938490115647213
6.464132608,1.0007720526185984,29.76718601778547
6.4664192,1.0005944141665881,29.598040177222263
6.46870528,1.000379067553083,29.431715684292588
6.470991872,1.0001394594509398,29.26863500069487
6.473277952,0.9998907541701413,29.109050031576825
6.475564544,0.999648622493177,28.95298320505947
6.477850624,0.9994283679460553,28.80025056848917
6.480137216,0.9992440611482709,28.650407613321104
6.482423296,0.9991072617915109,28.502857391947824
6.484709888,0.9990267632302411,28.356861160266185
6.48699648,0.9990076368832547,28.21156861680281
6.48928256,0.9990513563412625,28.066033718122508
6.491569152,0.9991548387681803,27.91939125907899
6.493855232,0.9993119029080285,27.770838428782064
6.496141824,0.9995125258546766,27.619633571245654
6.498427904,0.9997440754445113,27.465245014081894
6.500714496,0.999991956345807,27.30733592886039
6.503001088,1.0002404372993199,27.145784541810865
6.505287168,1.000473970203403,26.980663506812792
6.50757376,1.0006775890755368,26.81235818493726
6.50985984,1.0008386871399113,26.641352570345816
6.512146432,1.000946822248992,26.468350000016535
6.514432512,1.000995261627303,26.294168582925472
6.516719104,1.0009808891629401,26.119676055956404
6.519005184,1.0009045602895534,25.945805922449562
6.521291776,1.0007709899946335,25.77340122991618
6.523578368,1.0005885106927557,25.603225791091404
6.525864448,1.0003686934745286,25.43590297606713
6.52815104,1.0001253841305846,25.271900277267925
6.53043712,0.9998737255892908,25.111462095814222
6.532723712,0.9996298263503215,24.95453763515268
6.535009792,0.9994089780663973,24.800957908303587
6.537296384,0.9992252891988832,24.650286881679552
6.539582976,0.999090214192626,24.501899400820413
6.541869056,0.9990125600450851,24.355007950464742
6.544155648,0.9989971517151147,24.208744771161307
6.546441728,0.9990451759132929,24.062201438383127
6.54872832,0.9991534868633769,23.91450439640956
6.5510144,0.9993153773105017,23.764777667038366
6.553300992,0.9995206334179889,23.612351830520566
6.555587072,0.9997563490289975,23.456659881411074
6.557873664,1.0000075260322718,23.29740361003689
6.560160256,1.0002584199124245,23.134444344900725
6.562446336,1.0004930877520852,22.96792451706903
6.564732928,1.0006967479084656,22.798171024642578
6.567019008,1.0008566111002524,22.625728108897373
6.5693056,1.0009624962232007,22.451318630418807
6.57159168,1.00100763753241,22.27575057032955
6.573878272,1.0009892349923661,22.099947438782202
6.576164864,1.0009082819196016,21.924795539165988
6.578450944,1.0007698845843578,21.751173921000504
6.580737536,1.000582742268823,21.579863961514228
6.583023616,1.0003584579535951,21.41146623805602
6.585310208,1.0001113642788828,21.246435405274735
6.587596288,0.9998569435798224,21.085011768249778
6.58988288,0.9996111732866407,20.927152999308376
6.59216896,0.9993897209464511,20.772642220166
6.594455552,0.999206469992312,20.621021134928977
6.596742144,0.99907323979686,20.471673673995838
6.599028224,0.9989983214453367,20.323779456150312
6.601314816,0.9989866519948518,20.176470554079003
6.603600896,0.9990389777384059,20.02883615762639
6.605887488,0.9991521333405496,19.87993256889536
6.608173568,0.9993187932558709,19.728962201407853
6.61046016,0.9995286568011427,19.57521145214961
6.612746752,0.9997684299856272,19.418129985206264
6.615032832,1.0000230131469499,19.25742473581238
6.617319424,1.000276227029828,19.09297889062195
6.619605504,1.0005120909010505,18.924923480202313
6.621892096,1.0007158215721377,18.753624977241092
6.624178176,1.0008745204085354,18.579653140314164
6.626464768,1.000978197975151,18.40373107091104
6.628750848,1.0010200406620293,18.22669416175204
6.63103744,1.0009975299461311,18.04945379056447
6.633324032,1.0009121119347189,17.87292493637361
6.635610112,1.0007690016267279,17.698017783833933
6.637896704,1.0005770320492309,17.525454716280024
6.640182784,1.000348515410944,17.355875466400565
6.642469376,1.0000976946236928,17.189721429030854
6.644755456,0.9998403102972283,17.027191821936377
6.647042048,0.9995927806302676,16.86830058731578
6.649328128,0.9993706297031099,16.712745229890956
6.65161472,0.9991878837125665,16.560086188969834
6.653901312,0.9990563935074451,16.409668054300358
6.656187392,0.9989842558228683,16.260664437198695
6.658473984,0.9989762252837978,16.11223628931831
6.660760064,0.9990329037416297,15.963367119318276
6.663046656,0.9991506118988986,15.81319004718407
6.665332736,0.9993220802396616,15.660866909286241
6.667619328,0.9995365165103169,15.505676905323995
6.66990592,0.9997802508032538,15.347127304425825
6.672192,1.0000381148176687,15.1848612117098
6.674478592,1.00029364659453,15.018811179016932
6.676764672,1.0005308359616103,14.849150135353762
6.679051264,1.0007346961024413,14.67621432016245
6.681337344,1.0008922525700914,14.500623884039143
6.683623936,1.0009936115559803,14.32308695933377
6.685910016,1.001032293070249,14.144457042054754
6.688196608,1.0010057910269363,13.965691765397318
6.6904832,1.0009159251713382,13.787717325915489
6.69276928,1.0007679921267316,13.611360635326868
6.695055872,1.0005714749525811,13.437471676824183
6.697341952,1.0003385966815492,13.266605952553448
6.699628544,1.0000840303465635,13.099220874738942
6.701914624,0.9998238331854274,12.935510523958213
6.704201216,0.9995744469556171,12.775444414482012
6.706487808,0.999351648989999,12.61874962327963
6.708773888,0.9991695711513788,12.464956756930171
6.71106048,0.9990396336993154,12.313363048478232
6.71334656,0.9989702207341484,12.163173703319702
6.715633152,0.998965751337914,12.013474624556721
6.717919232,0.9990266398686111,11.863295256424099
6.720205824,0.9991489467080595,11.711724762610134
6.722491904,0.9993251841396529,11.557967631137704
6.724778496,0.9995440460054907,11.401253405972344
6.727065088,0.9997919101836436,11.241091748932327
6.729351168,1.0000529575125405,11.077180970765022
6.73163776,1.0003109425694414,10.909457609153568
6.73392384,1.0005493932733895,10.738081896488328
6.736210432,1.0007532947636868,10.563413720337962
6.738496512,1.0009097400271363,10.3860829721944
6.740783104,1.0010089594111695,10.20682359585671
6.743069696,1.0010445640766017,10.026527372603198
6.745355776,1.0010141699064803,9.846129886075206
6.747642368,1.0009198504727652,9.666568690504098
6.749928448,1.0007673697972221,9.48871144503382
6.75221504,1.0005662218921876,9.31336562329463
6.75450112,1.0003289464486003,9.141116568366147
6.756787712,1.0000707487172482,8.972409140948509
6.759073792,0.9998078265221818,8.807405760067178
6.761360384,0.9995565511667581,8.646058101708315
6.763646976,0.9993329449623212,8.488116502766808
6.765933056,0.9991512835229575,8.333058151494974
6.768219648,0.9990229838358072,8.18021740527634
6.770505728,0.9989562166427587,8.028711706900546
6.77279232,0.9989552175985135,7.877658220365094
6.7750784,0.9990203012922123,7.726076297831524
6.777364992,0.999147160506023,7.573039730170953
6.779651584,0.9993279839541777,7.417693699158139
6.781937664,0.9995513702236025,7.259381155750884
6.784224256,0.9998032515871642,7.097531363415981
6.786510336,1.0000676050213393,6.931886665549917
6.788796928,1.0003279105650906,6.7623709131306855
6.791083008,1.0005675432008898,6.589156558820009
6.7933696,1.0007715997300388,6.412681490388971
6.79565568,1.0009271683044623,6.233516805829821
6.797942272,1.00102428292982,6.052453612067371
6.800228864,1.0010568783006326,5.870374109254581
6.802514944,1.001022670614966,5.688238950839502
6.804801536,1.000924009060747,5.507006829472846
6.807087616,1.0007668623613768,5.327530848373143
6.809374208,1.0005611413668412,5.150632322316514
6.811660288,1.0003197704257576,4.9768775436373955
6.81394688,1.0000579484015544,4.8067185703318245
6.81623296,0.9997920466638367,4.6403243902172235
6.818519552,0.9995389604471243,4.477618981054652
6.820806144,0.9993147210063238,4.318314092679574
6.823092224,0.9991334240050702,4.161918022408306
6.825378816,0.9990065458133197,4.007674376372128
6.827664896,0.9989422887267327,3.8547664532682178
6.829951488,0.998944737913898,3.702246597618642
6.832237568,0.9990138455845656,3.5491580396376006
6.83452416,0.9991452053974842,3.3945424840514957
6.836810752,0.9993306127259715,3.237577924551585
6.839096832,0.9995583563572238,3.077534237119586
6.841383424,0.9998141018404174,2.913909613655346
6.843669504,1.0000817855166593,2.7464164849769857
6.845956096,1.000344491775341,2.575021713258286
6.848242176,1.0005856033032934,2.399894545608026
6.850528768,1.0007898108886257,2.221482805667226
6.852814848,1.0009444411227684,2.0403804928023264
6.85510144,1.0010395227093933,1.8574244016292105
6.857388032,1.0010691470907556,1.6734702842316127
6.859674112,1.0010313363181895,1.4895228808961516
6.861960704,1.0009282614397597,1.3065008865156782
6.864246784,1.0007667697433602,1.1253152125197095
6.866533376,1.0005564402034484,0.9467240604703979
6.868819456,1.0003109555190475,0.7713890597602898
6.871106048,1.0000454165534094,0.5996790719633792
6.87339264,0.9997767383971319,0.43178124830661935
6.87567872,0.9995217254029269,0.2675897967783406
6.877965312,0.9992964951884855,0.10683993223779491
6.880251392,0.9991155057718435,-0.051033725226040154
6.882537984,0.9989900654410424,-0.20674219860035412
6.884824064,0.9989282463635624,-0.36116513049324045
6.887110656,0.9989341274580716,-0.5152355188153441
6.889396736,0.9990070888629582,-0.6699374313642235
6.891683328,0.9991428202890742,-0.8262381516705392
6.89396992,0.9993326810790149,-0.9849463627713304
6.896256,0.9995648308149148,-1.1468038502507862
6.898542592,0.9998246166388691,-1.3122895214705543
6.900828672,1.0000955109886007,-1.4817204910136077
6.903115264,1.0003604858315058,-1.6550990103157377
6.905401344,1.0006030058751658,-1.8322248340584726
6.907687936,1.0008075468659563,-2.012661861955503
6.909974528,1.0009613364131216,-2.195769804915063
6.912260608,1.0010545698048974,-2.3807582927333906
6.9145472,1.00108142921152,-2.5666765726911147
6.91683328,1.001040032887812,-2.7525510623032856
6.919119872,1.0009329178535586,-2.937463015455713
6.921405952,1.0007669369147159,-3.12048089122021
6.923692544,1.000552292943267,-3.3008224583097276
6.925978624,1.0003025401256962,-3.4778639219321077
6.928265216,1.0000334857764932,-3.651232018207988
