freq,mag,phase
6.0,0.9995520246055575,34.753793109715744
6.004571648,0.9995375065561434,34.647515085876904
6.009142784,0.9995509773823097,34.541290197785
6.013714432,0.9995915698418136,34.43468035480488
6.018285568,0.9996566685888815,34.327313743233255
6.022857216,0.9997426215799299,34.2188475583607
6.027428352,0.9998439863282376,34.10905020101511
6.032,0.9999547511371769,33.99778942075607
6.036571648,1.0000681941566072,33.884880363190675
6.041142784,1.0001775619517579,33.77040040337739
6.045714432,1.0002761416198522,33.65449570220193
6.050285568,1.00035806525577,33.5372231078524
6.054857216,1.000418341333612,33.41895490239918
6.059428352,1.0004532007359352,33.300041363350495
6.064,1.0004608632083822,33.18079111678856
6.068571648,1.0004405041247595,33.061637450283364
6.073142784,1.0003936102386155,32.942965809350575
6.077714432,1.0003227784794877,32.82512749650334
6.082285568,1.000232371661389,32.70837190761862
6.086857216,1.000127899595567,32.59302494349364
6.091428352,1.0000155903166594,32.47922962060869
6.096,0.9999022018536009,32.367002891216586
6.100571648,0.9997945952431986,32.25639339565093
6.105142784,0.9996993119584817,32.14717369215814
6.109714432,0.999622123947714,32.039167977378476
6.114285568,0.999567586066946,31.93208210895396
6.118857216,0.9995391944678114,31.82560651361194
6.123428352,0.9995384410164924,31.7193407742383
6.128,0.999565542436376,31.612891789318326
6.132571648,0.9996188981548088,31.505816059687714
6.137142784,0.9996951815511222,31.397856069010864
6.141714432,0.9997898687258546,31.288696036047035
6.146285568,0.9998971535415433,31.178064408540916
6.150857216,1.000010630842093,31.065884714353814
6.155428352,1.0001234996357404,30.95205191360965
6.16,1.0002288744674999,30.836707915572134
6.164571648,1.0003203579719881,30.719926438693435
6.169142784,1.000392541700123,30.602002056050676
6.173714432,1.0004409946015866,30.483251616972417
6.178285568,1.0004627367676495,30.36396713056974
6.182857216,1.0004564870917454,30.244562653005456
6.187428352,1.000422659617518,30.125420848690315
6.192,1.0003632842039152,30.006940299517844
6.196571648,1.0002818699511906,29.88950949662031
6.201142784,1.00018331730636,29.773264908388043
6.205714432,1.0000736122143743,29.658525596839745
6.210285568,0.9999593330061484,29.545373162273776
6.214857216,0.9998474972120333,29.433840559549935
6.219428352,0.9997445960023942,29.323784899269402
6.224,0.9996571413948154,29.215115012377456
6.228571648,0.9995902542288662,29.10747838172322
6.233142784,0.9995479695313514,29.000632795078534
6.237714432,0.9995329564256549,28.894227724012843
6.242285568,0.9995460519398088,28.787838352606236
6.246857216,0.9995865929340508,28.681026706445806
6.251428352,0.9996520079279932,28.57347631262318
6.256,0.999738400456913,28.464811223554705
6.260571648,0.9998405764905604,28.354870417386405
6.265142784,0.9999523485258955,28.243353417228363
6.269714432,1.0000669846623103,28.130234637063893
6.274285568,1.0001774815745783,28.015521005028244
6.278857216,1.0002772992467712,27.899302616909715
6.283428352,1.0003603542235016,27.78177575745777
6.288,1.0004216157425407,27.66325154320369
6.292571648,1.0004573874943528,27.544012685796986
6.297142784,1.0004655358832104,27.424457657747883
6.301714432,1.0004454697536478,27.304990254629807
6.306285568,1.000398548256234,27.185999014169838
6.310857216,1.0003274589130846,27.06778094214453
6.315428352,1.0002364616283819,26.95077131218295
6.32,1.000131103291234,26.83511413319121
6.324571648,1.0000177014430893,26.72103090822368
6.329142784,0.9999031946547323,26.608523212539012
6.333714432,0.9997943761566687,26.497624829541607
6.338285568,0.9996978613605265,26.38816782601199
6.342857216,0.9996194543174799,26.279944030745842
6.347428352,0.9995639444033757,26.172672348557207
6.352,0.9995347451424379,26.065993410190668
6.356571648,0.9995335400215881,25.95950378722781
6.361142784,0.9995604773523958,25.85287141697612
6.365714432,0.9996138526148995,25.745672639769698
6.370285568,0.9996905794525903,25.637477305224426
6.374857216,0.9997858921667466,25.52812127314499
6.379428352,0.999894148419569,25.417306074436283
6.384,1.0000087755995186,25.3048687522281
6.388571648,1.0001228480072126,25.19081407979439
6.393142784,1.000229452111752,25.07520934392394
6.397714432,1.0003221865950274,24.958174339865565
6.402285568,1.0003954912587183,24.839972258232148
6.406857216,1.0004448516196809,24.72085930259566
6.411428352,1.0004673587300124,24.60128652377903
6.416,1.0004615653101152,24.481566065581255
6.420571648,1.000427910049381,24.36207164142152
6.425142784,1.0003682989293448,24.243287727626928
6.429714432,1.000286402027428,24.125475152640014
6.434285568,1.0001870814705944,24.008962512355613
6.438857216,1.0000764462424836,23.89390248051514
6.443428352,0.9999610262392168,23.78046574355235
6.448,0.9998477897547648,23.668622513661866
6.452571648,0.9997437253688058,23.558330892324506
6.457142784,0.9996550119181374,23.44940105362413
6.461714432,0.999586988281849,23.341590890850345
6.466285568,0.9995438671506854,23.234540241049498
6.470857216,0.9995281318647393,23.127930391150993
6.475428352,0.999540905139754,23.021332987524236
6.48,0.9995812810576263,22.91430947724922
6.484571648,0.9996470339654379,22.806585806091796
6.489142784,0.9997339938222461,22.69776613814554
6.493714432,0.9998369337428473,22.58757574114106
6.498285568,0.9999497806270078,22.475847491172644
6.502857216,1.000065574992377,22.362518116790497
6.507428352,1.0001774376675658,22.24753991061273
6.512,1.0002785940000734,22.131038507740236
6.516571648,1.000362860534024,22.013276823881146
6.521142784,1.0004251658047414,21.89441276915829
6.525714432,1.000461830983453,21.774859656114472
6.530285568,1.0004705697168623,21.654970089460868
6.534857216,1.0004508971892467,21.535169178947353
6.539428352,1.0004038684204732,21.41580731158437
6.544,1.0003323730736127,21.29727765559203
6.548571648,1.000240826695263,21.17991604047346
6.553142784,1.0001346342543973,21.063977386149194
6.557714432,1.0000201692260864,20.94956390332589
6.562285568,0.9999043416706139,20.836757953192073
6.566857216,0.9997941608968927,20.725584337205085
6.571428352,0.9996963635999395,20.615903478906567
6.576,0.9996166810514159,20.507401861683086
6.580571648,0.9995602039543685,20.3999177199187
6.585142784,0.9995301452050835,20.293065688059368
6.589714432,0.9995283937242291,20.186375950391948
6.594285568,0.9995550725006546,20.079570538824523
6.598857216,0.9996085496287881,19.972109006669843
6.603428352,0.9996856444740587,19.86375637066634
6.608,0.9997817584606731,19.754186522537044
6.612571648,0.9998909326087083,19.643171048024378
6.617142784,1.000006715551898,19.5304861399019
6.621714432,1.0001220821329693,19.416207146547904
6.626285568,1.0002300245432987,19.30035861693773
6.630857216,1.0003241311962434,19.18301853365171
6.635428352,1.0003985478374953,19.064512343200903
6.64,1.0004489832903167,18.945083902873392
6.644571648,1.0004722833050783,18.82516109536819
6.649142784,1.0004669852668222,18.705073040172746
6.653714432,1.0004333850392468,18.585305972714696
6.658285568,1.000373636489497,18.466106094413092
6.662857216,1.000291198408323,18.34796327081012
6.667428352,1.0001911515770983,18.23112886006675
6.672,1.0000794647854567,18.11576590504692
6.676571648,0.999962871122109,18.002013221675536
6.681142784,0.9998482707120482,17.889867674363853
6.685714432,0.9997428206966429,17.779329970392002
6.690285568,0.9996527869970611,17.670153154403334
6.694857216,0.9995835821346112,17.56210179297953
6.699428352,0.9995394537020066,17.454849598032602
6.704,0.9995230665055802,17.348002636268898
6.708571648,0.9995354963658898,17.24122225794513
6.713142784,0.9995758116709678,17.134043861360436
6.717714432,0.9996417773418034,17.026085473495534
6.722285568,0.9997292283702592,16.917048874695933
6.726857216,0.9998330934300852,16.806643513390515
6.731428352,0.9999470290298084,16.694706368971925
6.736,1.0000641316336112,16.581138715984974
6.740571648,1.0001774309823406,16.465882889344126
6.745142784,1.0002798418949195,16.34912026282146
6.749714432,1.0003654085745002,16.23101126154231
6.754285568,1.0004289152741555,16.111876565687925
6.758857216,1.0004665649291178,15.991955041828867
6.763428352,1.000475821642321,15.871744570084552
6.768,1.0004564928554671,15.751578520515308
6.772571648,1.000409490999803,15.631874471988727
6.777142784,1.0003376674796447,15.513029393536991
6.781714432,1.0002454041803672,15.395296386373534
6.786285568,1.000138265376642,15.278979049683658
6.790857216,1.0000225994805443,15.164284342601755
6.795428352,0.9999054475580288,15.051154859113446
6.8,0.9997938956881414,14.939716194768666
6.804571648,0.9996947074051832,14.829750218528366
6.809142784,0.9996138147691115,14.721028141336694
6.813714432,0.9995561514498543,14.613300150820516
6.818285568,0.9995252484101095,14.506177362340981
6.822857216,0.9995229462310321,14.399336712024779
6.827428352,0.9995493333354646,14.292287283031174
6.832,0.999602865845553,14.184655351851903
6.836571648,0.9996804854130994,14.07611645891363
6.841142784,0.9997772480040185,13.96633909223719
6.845714432,0.9998875066092497,13.855072520618084
6.850285568,1.0000044966269992,13.742195899408607
6.854857216,1.000121269131068,13.627624279648696
6.859428352,1.000230635961743,13.511501293410824
6.864,1.0003260868675956,13.393883895731275
6.868571648,1.0004018381631006,13.275048280925985
6.873142784,1.0004533571646586,13.155283673547782
6.877714432,1.000477331884307,13.034992425454453
6.882285568,1.0004726206767554,12.914566861215265
6.886857216,1.000439275257843,12.794406051758655
6.891428352,1.0003792718682063,12.674885359031844
6.896,1.0002963645165552,12.556397232023752
6.900571648,1.0001954538604376,12.439188972945761
6.905142784,1.0000825620132239,12.323477625161466
6.909714432,0.999964750852691,12.209427208025264
6.914285568,0.9998487106541322,12.096997243170522
6.918857216,0.9997418304433697,11.986155850272684
6.923428352,0.999650432144112,11.876697942131026
6.928,0.9995800174218075,11.768405021519476
6.932571648,0.999534822382142,11.660937463420721
6.937142784,0.9995177012555178,11.55389817711137
6.941714432,0.999529687050286,11.446877215614885
6.946285568,0.9995698889393877,11.339525274654028
6.950857216,0.9996360862886913,11.231358654837884
6.955428352,0.9997242387484128,11.122140448509535
6.96,0.9998290189213265,11.011493796359487
6.964571648,0.999944135281638,10.899297051594514
6.969142784,1.0000625794319513,10.785496487083194
6.973714432,1.0001772047304003,10.669971682570802
6.978285568,1.0002811622877592,10.552926743391046
6.982857216,1.0003681387836916,10.434492213391792
6.987428352,1.0004328653564791,10.31501510472896
6.992,1.0004714254365767,10.194765378426363
6.996571648,1.000481468098542,10.074157528099748
7.001142784,1.000462448419407,9.953641474885563
7.005714432,1.0004154229419404,9.833558515300178
7.010285568,1.000343171474145,9.714318035169791
7.014857216,1.0002502780994287,9.596266182145158
7.019428352,1.000142073012495,9.47963056990768
7.024,1.000025114479122,9.36455438314841
7.028571648,0.9999066353096681,9.251151604498892
7.033142784,0.9997936662024169,9.139364919787395
7.037714432,0.9996928789173667,9.029115833173705
7.042285568,0.9996107119440265,8.920172705253043
7.046857216,0.9995518827739286,8.812193323795876
7.051428352,0.9995199995773736,8.704856112336069
7.056,0.9995170141952484,8.597790848700994
7.060571648,0.9995431901154517,8.490562642150692
7.065142784,0.99959686755351,8.382739689178619
7.069714432,0.9996749009873879,8.273969816977752
7.074285568,0.999772520385874,8.163977299261498
7.078857216,0.9998838423655215,8.052456799492882
7.083428352,1.000002098410379,7.939312324771907
7.088,1.000120321437147,7.824531052481667
7.092571648,1.000231200690833,7.708051415734614
7.097142784,1.000328149307515,7.590140470031679
7.101714432,1.0004052339275793,7.470995619509798
7.106285568,1.0004578209955353,7.350893468257847
7.110857216,1.0004827807153613,7.230235437037199
7.115428352,1.0004785856008847,7.109439490986381
7.12,1.0004454265166725,6.98888493501166
7.124571648,1.0003852858361133,6.869002090458909
7.129142784,1.0003017691158562,6.7501091396499096
7.133714432,1.0001999539775954,6.632564670233396
7.138285568,1.0000860207606317,6.516496010152085
7.142857216,0.9999666583277571,6.402087326998826
7.147428352,0.9998492392037676,6.289332581542342
7.152,0.9997408500520137,6.178234761677802
7.156571648,0.9996479056440537,6.068533537157672
7.161142784,0.9995761409697113,5.959972503867903
7.165714432,0.9995299135389292,5.852244477741996
7.170285568,0.9995119529556671,5.744980216146572
7.174857216,0.9995234268991489,5.637780321825353
7.179428352,0.9995635503819256,5.530193094286057
7.184,0.9996301597109669,5.421837925580024
7.188571648,0.9997189368650052,5.312376100265107
7.193142784,0.9998246244617582,5.2015247058553395
7.197714432,0.9999409832580731,5.0891111054041565
7.202285568,1.000060819175257,4.974983766240438
7.206857216,1.0001769927007582,4.8592101320056305
7.211428352,1.0002824449576173,4.74183200089038
7.216,1.000370903474731,4.623108395877036
7.220571648,1.0004369259335864,4.503229133231809
7.225142784,1.0004765282996324,4.382642126400448
7.229714432,1.0004873451534997,4.261663579637428
7.234285568,1.0004686990431153,4.140751828641802
7.238857216,1.0004216633044665,4.020289122608272
7.243428352,1.0003491796828428,3.9006696542761428
7.248,1.0002553737600879,3.7822263874317756
7.252571648,1.0001461463726722,3.665215556618856
7.257142784,1.0000279861589703,3.549810179436642
7.261714432,0.9999079412458878,3.4360581006610738
7.266285568,0.9997934388520231,3.3239764806966643
7.270857216,0.999691179469535,3.2134532295216545
7.275428352,0.999607495408301,3.104223786686612
7.28,0.9995473568031891,2.995997014192685
7.284571648,0.9995145782252021,2.888481642916924
7.289142784,0.9995109062904501,2.7811547457227905
7.293714432,0.9995368343348721,2.673702004434862
7.298285568,0.9995905572047609,2.5656396684700065
7.302857216,0.9996690044041454,2.456699298715948
7.307428352,0.9997675428098357,2.3464601556583684
7.312,0.9998799548173125,2.2347151363885627
7.316571648,0.9999996343000803,2.1213443033598343
7.321142784,1.0001192863920176,2.006237361987641
7.325714432,1.0002318068397684,1.8894761618067528
7.330285568,1.000330305462673,1.7712207945618594
7.334857216,1.00040880951242,1.651715124316218
7.339428352,1.0004626582149445,1.5312734993636647
7.344,1.0004885323764645,1.4102446619295268
7.348571648,1.000484818718389,1.2890482086975397
7.353142784,1.0004519255920048,1.1680962935285713
7.357714432,1.0003915196093358,1.0478272644427544
7.362285568,1.000307553036191,0.9285600597997031
7.366857216,1.0002048817212557,0.8106003148414412
7.371428352,1.0000896153988053,0.694188702784384
7.376,0.9999689398970885,0.5794341550293199
7.380571648,0.9998498961075042,0.4663604798865085
7.385142784,0.9997397554500563,0.35492947529267205
7.389714432,0.9996453062901298,0.24491913610963043
7.394285568,0.9995721769758551,0.13611197947494869
7.398857216,0.9995247736906263,0.028161340764933426
7.403428352,0.9995059409115042,-0.07930695470590064
7.408,0.9995169076979514,-0.1867302332030824
7.412571648,0.9995569358206603,-0.2945611712526816
7.417142784,0.9996237824349593,-0.40313022752182404
7.421714432,0.9997132275617125,-0.5127993519164266
7.426285568,0.9998200751946128,-0.623865986985335
7.430857216,0.9999376078737836,-0.7365673551184555
7.435428352,1.0000589756948404,-0.8509563963848827
7.44,1.0001767844699814,-0.96702782882909
7.444571648,1.0002839154402485,-1.0847050761689623
7.449142784,1.000373975175246,-1.2038027837013725
7.453714432,1.0004412690190734,-1.3240119070678464
7.458285568,1.000481953607947,-1.4449982774060102
7.462857216,1.000493534079261,-1.5663597495625843
7.467428352,1.000475463664201,-1.6876577659134877
7.472,1.0004283117666966,-1.8085424001621124
7.476571648,1.0003553428103331,-1.9285685840293196
7.481142784,1.0002608561271586,-2.0474278919357136
7.485714432,1.000150496273849,-2.164836356241505
7.490285568,1.0000309480776481,-2.2806015763746
7.494857216,0.9999093966189369,-2.394675690365117
7.499428352,0.999793136322137,-2.507078110552592
7.504,0.9996892266068375,-2.6178978368034205
7.508571648,0.9996039469376602,-2.727413684055144
7.513142784,0.9995424781296057,-2.835897229338478
7.517714432,0.9995086526758115,-2.9436699663178016
7.522285568,0.9995043934633634,-3.0511983504859197
7.526857216,0.9995299436953958,-3.1588753011126016
7.531428352,0.9995837295268436,-3.267134987410876
7.536,0.9996627055960755,-3.3763182349113627
7.540571648,0.9997620487333577,-3.486792168612253
7.545142784,0.999875699658418,-3.598786669490392
7.549714432,0.9999969249908606,-3.71243643198975
7.554285568,1.0001181680609073,-3.827820722287942
7.558857216,1.0002324053557228,-3.944907492387766
7.563428352,1.0003325439374764,-4.063468998627253
7.568,1.000412498214364,-4.18334521033405
7.572571648,1.0004676719965495,-4.304164780831825
7.577142784,1.0004945272386656,-4.42558558895348
7.581714432,1.0004915095826539,-4.547182384617661
7.586285568,1.0004587032047527,-4.668550181925579
7.590857216,1.0003982611428515,-4.789267678925981
7.595428352,1.0003135592366077,-4.9089317208417
7.6,1.0002098904199126,-5.027293957645773
7.604571648,1.0000933735879876,-5.144079956999589
7.609142784,0.9999711471726875,-5.259185761809099
7.613714432,0.9998504634521627,-5.372580898002789
7.618285568,0.9997386366381933,-5.484341001313114
7.622857216,0.9996425967160679,-5.594656574570479
7.627428352,0.9995678551792638,-5.703710191465073
7.632,0.9995191953113036,-5.811932155062314
7.636571648,0.9994995462794155,-5.919654479305508
7.641142784,0.9995099572858664,-6.0273021284384924
7.645714432,0.999549842823207,-6.135356860973456
7.650285568,0.9996169499272023,-6.244147315874283
7.654857216,0.999707090853946,-6.354064539153676
7.659428352,0.999814975770719,-6.465371579986938
7.664,0.9999339489509608,-6.578321819634741
7.668571648,1.0000569622822342,-6.692990802968853
7.673142784,1.0001764061452278,-6.809354146237705
7.677714432,1.000285296951021,-6.927375102099754
7.682285568,1.000376920440047,-7.046812475834035
7.686857216,1.0004457366729849,-7.167403936231963
7.691428352,1.000487732996168,-7.288783562831176
7.696,1.0005001763527661,-7.410566065401352
7.700571648,1.0004823354467927,-7.5322960726168535
7.705142784,1.0004354126031303,-7.6535772143964795
7.709714432,1.0003619891482882,-7.774060598728552
7.714285568,1.000266656194651,-7.893302804875588
7.718857216,1.0001551519617804,-8.011105874511397
7.723428352,1.0000341504723735,-8.127244613445376
7.728,0.9999109016014119,-8.24170631165099
7.732571648,0.999792886721998,-8.354400400216088
7.737142784,0.9996873150518875,-8.4655727305468
7.741714432,0.9996003120008079,-8.575384219469411
7.746285568,0.9995375418749096,-8.684105504596129
7.750857216,0.9995025126739187,-8.792130717503248
7.755428352,0.9994973673167182,-8.899907727858052
7.76,0.9995225816797157,-9.007826582990983
7.764571648,0.9995766046836768,-9.116267648948815
7.769142784,0.9996561318600158,-9.225699563511595
7.773714432,0.9997564351457006,-9.336410562440404
7.778285568,0.999871318393448,-9.44864971169231
7.782857216,0.9999939630076927,-9.562588408923506
7.787428352,1.0001170114069915,-9.678292226737682
7.792,1.0002329358347564,-9.795649156755147
7.796571648,1.00033480097804,-9.914590721902409
7.801142784,1.0004164691194144,-10.034822763097084
7.805714432,1.000473028960198,-10.156072562304983
7.810285568,1.0005009169506573,-10.277915131185397
7.814857216,1.000498550683231,-10.399922412351117
7.819428352,1.0004659921265633,-10.521708037575538
7.824,1.0004052694104513,-10.642818607312307
7.828571648,1.000320003810948,-10.762970852622427
7.833142784,1.000215251434837,-10.881740701677934
7.837714432,1.0000974706157375,-10.99889984549994
7.842285568,0.9999735509669115,-11.114404631964527
7.846857216,0.9998510805285078,-11.22816526750564
7.851428352,0.9997375483747378,-11.340254053840166
7.856,0.9996396013416866,-11.450842284578492
7.860571648,0.9995634691671331,-11.560196066184615
7.865142784,0.9995133402485792,-11.66867772598998
7.869714432,0.9994926724107985,-11.776651172662158
