freq,mag,phase
6.0,0.999476444543849,72.42909813063841
6.002285056,0.9994882822123253,72.28559067755937
6.004570112,0.9995325488525831,72.1416337357011
6.006855168,0.9996066349082084,71.9968710549948
6.009140224,0.9997060722937224,71.8508316730518
6.01142528,0.999824318996834,71.70322087863816
6.013710336,0.9999540783993258,71.55380408484697
6.015995392,1.000087187271366,71.40250869827783
6.018280448,1.0002151844839857,71.24929976864871
6.020565504,1.0003299859464807,71.09433913802978
6.02285056,1.0004244934480684,70.93785579423498
6.025135616,1.0004923999152744,70.78021709681362
6.027420672,1.000529699302518,70.62180126132516
6.029705728,1.0005338134016863,70.46308844721825
6.031990784,1.0005045297078912,70.30455851957008
6.03427584,1.000443796340907,70.14666529119407
6.036560896,1.000355153233997,69.98985909573672
6.038845952,1.00024427771982,69.83452322698601
6.041131008,1.0001182341430581,69.68086831352309
6.043416064,0.9999848826260911,69.52911838428045
6.04570112,0.9998526480988237,69.37930389144147
6.047986176,0.9997298913506373,69.23133489711239
6.050271232,0.9996243659783569,69.0850193876496
6.052556288,0.9995428128874957,68.94007882845031
6.054841344,0.9994902298111663,68.7961068415731
6.0571264,0.9994702794477975,68.65268101030173
6.059411456,0.9994840014283879,68.50928878578605
6.061696512,0.9995306584930382,68.36547501042833
6.063981568,0.9996072589959822,68.22077859005965
6.066266624,0.9997090672232194,68.07475925671339
6.06855168,0.999829664873343,67.9271507993497
6.070836736,0.9999613759022008,67.77770449591125
6.073121792,1.0000959252042354,67.62632921689726
6.075406848,1.000224844017266,67.47304759460542
6.077691904,1.0003400233402895,67.31797807287708
6.07997696,1.00043402267008,67.16140411669161
6.082262016,1.000501106705631,67.00367283482278
6.084547072,1.0005367307602957,66.84516742224261
6.086832128,1.000539049497417,66.68639955756726
6.089117184,1.000507366898447,66.52781765739564
6.09140224,1.000444139294418,66.36995652939785
6.093687296,1.0003529984820618,66.21317801786661
6.095972352,1.00023975207031,66.05790181750884
6.098257408,1.0001115829426874,65.90435699674022
6.100542464,0.9999765025865858,65.75272492593734
6.10282752,0.9998431057541547,65.6030318022255
6.105112576,0.9997197293280036,65.4552178770208
6.107397632,0.9996141957823285,65.3090733678067
6.1096832,0.9995333631456732,65.16425705746033
6.111968256,0.9994821678795217,65.02040863374215
6.114253312,0.9994639817627237,64.8770718940333
6.116538368,0.9994797902824781,64.73375592144295
6.118823424,0.9995289282179316,64.58995710967825
6.12110848,0.9996081373281561,64.44524769994015
6.123393536,0.999712379814538,64.29918311021035
6.125678592,0.9998351906395259,64.15148681170463
6.127963648,0.9999689257469949,64.00192219748469
6.130248704,1.0001049007959302,63.85039840761685
6.13253376,1.0002346877616763,63.69693075673345
6.134818816,1.000350025094221,63.54170176189969
6.137103872,1.0004437118340992,63.38493894819901
6.139388928,1.0005097494807742,63.22700414810947
6.141673984,1.000543977655932,63.068364118964666
6.14395904,1.0005440431005233,62.90945011347831
6.146244096,1.0005101981648763,62.750765357886976
6.148529152,1.0004443052002903,62.592802522806245
6.150814208,1.0003506257419568,62.43600321690544
6.153099264,1.0002349895196259,62.28069792691507
6.15538432,1.0001046541849465,62.127162005219354
6.157669376,0.9999679306603014,61.97559321725185
6.159954432,0.999833359283937,61.825956687358754
6.162239488,0.9997094698099642,61.67821046362264
6.164524544,0.9996040663429127,61.532115941940305
6.1668096,0.9995238712434882,61.38736472432163
6.169094656,0.9994739783436062,61.24357956926111
6.171379712,0.9994576065408257,61.1002483662445
6.173664768,0.9994756892981389,60.95691602638414
6.175949824,0.9995272886986314,60.81308312837557
6.17823488,0.9996090572914992,60.66825367511037
6.180519936,0.9997159073277879,60.522066958185356
6.182804992,0.9998410521939561,60.37419244275512
6.185090048,0.9999766063681229,60.2244191199461
6.187375104,1.0001140539099749,60.072666859006354
6.18966016,1.0002446734812798,59.91894749911723
6.191945216,1.0003602741537054,59.76343914107163
6.194230272,1.0004535399529868,59.606408229063945
6.196515328,1.0005184747899214,59.44823187896001
6.198800384,1.0005510379574758,59.289328190119456
6.20108544,1.0005491030693534,59.13020062467775
6.203370496,1.0005128065835573,58.97132498699674
6.205655552,1.0004444079874353,58.81319822257859
6.207940608,1.0003481595401191,58.65627993907243
6.210225664,1.0002300592541087,58.50088094600832
6.21251072,1.0000975620170118,58.347305508307194
6.214795776,0.9999590789346898,58.19566572598167
6.217080832,0.9998233815794249,58.046044262717245
6.219365888,0.9996989720412583,57.89826986511993
6.221650944,0.9995937235295674,57.75217243054627
6.223936,0.9995142628458102,57.607402171531525
6.226221056,0.9994657874774179,57.46355016683468
6.228506112,0.9994512257317534,57.320172841301535
6.230791168,0.9994716927876981,57.17673789960862
6.233076224,0.9995258126839296,57.03276014260158
6.23536128,0.9996101969734137,56.88775687347618
6.237646336,0.9997195424046819,56.74135640428104
6.239931392,0.9998470310408961,56.593222612757266
6.242216448,0.9999845263543239,56.44315981095292
6.244501504,1.0001234185873031,56.29107935158548
6.24678656,1.000254879044423,56.137042628467306
6.249071616,1.0003706432325383,55.98117283988047
6.251356672,1.0004634698631505,55.8237974892291
6.253641728,1.0005272871829158,55.66528724948487
6.255926784,1.0005582058088782,55.506055830535374
6.25821184,1.0005541792123709,55.34660693938592
6.260496896,1.0005154358277704,55.18746257468749
6.262781952,1.0004443276717478,55.02911751697977
6.265067008,1.000345447766295,54.87197884817528
6.267352064,1.0002248727713692,54.716407299883
6.26963712,1.0000903693352714,54.5626969754862
6.271922176,0.9999501805906724,54.41094628604158
6.274207232,0.9998133060400898,54.26121495834754
6.276492288,0.9996883999149057,54.11335603730317
6.278777344,0.999583318285111,53.96715926966382
6.2810624,0.9995047758359218,53.82229730047245
6.283347456,0.9994576591691248,53.67834563317026
6.285632512,0.9994450847611219,53.53479564886646
6.287917568,0.9994677358576705,53.39118618491287
6.290202624,0.9995243966765957,53.24699729583349
6.29248768,0.9996114406797569,53.101728967724526
6.294772736,0.9997234054540814,52.95501434642294
6.297057792,0.9998531742556195,52.80654599940099
6.299342848,0.9999926161336062,52.65609880950524
6.301627904,1.000132882922385,52.503628936539236
6.30391296,1.0002652211250231,52.3491425125056
6.306198016,1.0003811617911962,52.192864350695785
6.308483072,1.0004733193972684,52.035042169571575
6.310768128,1.0005360789076108,51.876095724493425
6.313053184,1.0005652637185773,51.716457301093044
6.31533824,1.0005591045092197,51.55665645912203
6.317623296,1.0005179139909406,51.39716863182599
6.319908352,1.0004442190408054,51.23847937795728
6.322193408,1.0003426519215504,51.08102872011755
6.324478976,1.000219670980562,50.925238926329456
6.326764032,1.000082963342552,50.77129377002548
6.329049088,0.9999411489627068,50.619352393761176
6.331334144,0.9998031456531264,50.469444209931375
6.3336192,0.9996776786388384,50.3214085769202
6.335904256,0.9995728419655409,50.175044848360265
6.338189312,0.9994950516423019,50.03000309002822
6.340474368,0.9994494687657572,49.88584630820129
6.342759424,0.9994387994311553,49.742084442096896
6.34504448,0.9994638755713163,49.59818703591165
6.347329536,0.9995231420305142,49.45369584134232
6.349614592,0.9996128065608575,49.30809167025224
6.351899648,0.9997273965623101,49.16098680846766
6.354184704,0.9998594827100645,49.01209325727319
6.35646976,1.0000008517167625,48.8611947479257
6.358754816,1.0001425103473978,48.70823783393448
6.361039872,1.0002755738036697,48.5532502979018
6.363324928,1.0003916428791981,48.39643878625576
6.365609984,1.0004833522083045,48.23810481837418
6.36789504,1.0005448730539408,48.078668038698
6.370180096,1.0005723202781087,47.91854291129497
6.372465152,1.0005639334415408,47.75825587616138
6.374750208,1.000520257228232,47.59833797045961
6.377035264,1.0004438741432267,47.43925265351004
6.37932032,1.0003396776814883,47.281462248417284
6.381605376,1.0002142158986786,47.1253249944406
6.383890432,1.0000754163170118,46.97108484155914
6.386175488,0.9999318974671438,46.81887127671887
6.388460544,0.9997928237395457,46.668690266162386
6.3907456,0.9996669235227104,46.520425948871804
6.393030656,0.9995622500676719,46.37380660153449
6.395315712,0.9994854056059629,46.2284919352128
6.397600768,0.999441294839066,46.084048078892664
6.399885824,0.9994326016545376,45.93996379063105
6.40217088,0.9994600806324307,45.79574056475851
6.404455936,0.9995219982386958,45.650850669244164
6.406740992,0.9996144055101259,45.50481750117569
6.409026048,0.9997315118118343,45.357254972068034
6.411311104,0.9998659603451747,45.20785397878179
6.41359616,1.000009233846648,45.05639558090052
6.415881216,1.0001522639280431,44.90285862608943
6.418166272,1.0002861960470917,44.74728641705768
6.420451328,1.0004024026873704,44.58989045718039
6.422736384,1.0004935090439333,44.43097133302665
6.42502144,1.0005537919268415,44.27091508239397
6.427306496,1.000579567811628,44.110233502791885
6.429591552,1.0005688788362688,43.949391809204506
6.431876608,1.000522631416715,43.788951604179836
6.434161664,1.0004436340308343,43.62939828622705
6.43644672,1.0003367330883717,43.471164659217465
6.438731776,1.0002087964161086,43.314610859801014
6.441016832,1.00006778152289,43.15999277772316
6.443301888,0.9999225708612923,43.00743097591837
6.445586944,0.9997824590932436,42.85690757980243
6.447872,0.9996561110677211,42.70829527933774
6.450157056,0.999551671022488,42.561356826650346
6.452442112,0.9994757702623264,42.41569588749373
6.454727168,0.9994330722905935,42.27088754026964
6.457012224,0.9994263730949765,42.126416674058646
6.45929728,0.9994563367643602,41.98175573419754
6.461582336,0.9995208321778474,41.836397518463045
6.463867392,0.9996159787769636,41.689859180367506
6.466152448,0.9997357002940351,41.54173999863807
6.468437504,0.9998724097436253,41.39173435568795
6.47072256,1.0000177020379464,41.239671869106765
6.473007616,1.000162156572276,41.08547956455591
6.475292672,1.0002967291651992,40.92923257689629
6.477577728,1.0004129807511892,40.771145582207005
6.479862784,1.000503507594652,40.6115412025239
6.48214784,1.0005626319779517,40.45082010218758
6.484432896,1.0005865351335017,40.289472803007556
6.486717952,1.000573655296022,40.12802523290423
6.489003008,1.000524958213225,39.96699613517617
6.491288064,1.0004431529044566,39.80686130628258
6.49357312,1.000333639551072,39.64810384038226
6.495858176,1.0002032178376423,39.49107828619162
6.498143232,1.0000600317563448,39.335989367552465
6.500428288,0.9999131641068177,39.182975236822095
6.502713344,0.9997719755676199,39.032038367366425
6.5049984,0.9996452988709547,38.88304033970579
6.507283456,0.9995411629460027,38.735662790054775
6.509568512,0.9994661121975371,38.58957945649431
6.511853568,0.9994250017610751,38.444324786857216
6.514138624,0.9994204219917233,38.29938109651009
6.51642368,0.9994527696584521,38.154209094557594
6.518708736,0.9995199521185689,38.00830762414429
6.520993792,0.9996178033629101,37.861154152715
6.523278848,0.9997401171261446,37.71240080010513
6.525563904,0.9998792343961003,37.56172882778938
6.52784896,1.000026386441266,37.40893536789801
6.530134016,1.0001722483130553,37.25399288916164
6.532419072,1.0003075156903156,37.09702166203862
6.534704128,1.00042383108362,36.93814126010834
6.536989184,1.0005138332026304,36.777788607455044
6.53927424,1.0005716448946704,36.6163159579575
6.541559808,1.0005936971531355,36.45422119479316
6.543844864,1.000578562375946,36.292070546830004
6.54612992,1.0005272561889065,36.13035195424413
6.548414976,1.000442711335383,35.96959694321486
6.550700032,1.0003305801506097,35.81023095460709
6.552985088,1.0001976008308522,35.652618646722274
6.555270144,1.0000523012995668,35.49699053566437
6.5575552,0.9999038053681105,35.34346900246954
6.559840256,0.9997615393737007,35.19201877423957
6.562125312,0.9996344012525562,35.042506796722364
6.564410368,0.9995304522449188,34.894656503114575
6.566695424,0.9994564099552179,34.748068423112464
6.56898048,0.9994168137508853,34.602273929150876
6.571265536,0.9994143147179776,34.45678086688259
6.573550592,0.9994490709247721,34.3109968580023
6.575835648,0.9995189674941022,34.16445122221152
6.578120704,0.999619508942569,34.01663993618041
6.58040576,0.9997444137542946,33.86715367643224
6.582690816,0.9998859422008531,33.71572473736361
6.584975872,1.000034933999461,33.56215755318967
6.587260928,1.0001821252380125,33.40639973866151
6.589545984,1.000318143980132,33.248569163592784
6.59183104,1.0004345912552606,33.088870903449
6.594116096,1.0005238742088274,32.92764788895973
6.596401152,1.0005804588637206,32.765325820882765
6.598686208,1.0006007247942814,32.602435563885074
6.600971264,1.000583286001536,32.439480832978816
6.60325632,1.0005293495446728,32.277004179587244
6.605541376,1.000442249582484,32.11554126413068
6.607826432,1.0003272630674014,31.95547657262804
6.610111488,1.0001918845511535,31.797209384784793
6.612396544,1.0000443938063257,31.640957389775288
6.6146816,0.9998943125276744,31.486834793514806
6.616966656,0.9997509227438871,31.334809665139215
6.619251712,0.9996234157031764,31.18472745863642
6.621536768,0.9995197747386795,31.03629436598553
6.623821824,0.9994466828409122,30.8891043482674
6.62610688,0.999408663507736,30.742700030944192
6.628391936,0.9994082661589581,30.596561269391334
6.630676992,0.9994454539862749,30.450116989986576
6.632962048,0.9995180673432587,30.302835188948425
6.635247104,0.9996213256334068,30.154261542836263
6.63753216,0.9997489319525062,30.003978448566873
6.639817216,0.9998926928905756,29.851710660031976
6.642102272,1.0000436118487253,29.697257410961637
6.644387328,1.0001922278214237,29.540603656134543
6.646672384,1.000329002390093,29.381831006225593
6.64895744,1.0004454117134494,29.22121070645788
6.651242496,1.000534083353636,29.059061635225643
6.653527552,1.000589397902524,28.895829172664957
6.655812608,1.0006078482418856,28.732035391393836
6.658097664,1.0005881052392827,28.56820440305807
6.66038272,1.000531571957339,28.40488014818925
6.662667776,1.0004416831154386,28.242597965827482
6.664952832,1.0003240240352862,28.081790054204046
6.667237888,1.0001861131666623,27.92277538713726
6.669522944,1.0000365575216204,27.765812651264717
6.671808,0.9998847964733277,27.610997372501103
6.674093056,0.9997403453534421,27.458322581299353
6.676378112,0.9996124355915363,27.307568870420198
6.678663168,0.9995091487121343,27.15847862004938
6.680948224,0.9994369402266492,27.010625317237736
6.68323328,0.9994005410559951,26.863533035430738
6.685518336,0.9994021936846965,26.716655471715363
6.687803392,0.9994419474371861,26.569436908761393
6.690088448,0.9995171648571651,26.421376406415064
6.692373504,0.9996231565142568,26.27195431642662
6.69465856,0.999753325752342,26.120786737950127
6.696943616,0.9998994636593327,25.967599738767774
6.699228672,1.0000523109625226,25.812171866995275
6.701513728,1.0002022009090406,25.654521550506086
6.703798784,1.000339740972389,25.494765145763473
6.70608384,1.0004561847191966,25.333125009729336
6.708368896,1.0005442475497164,25.169952366053266
6.710653952,1.0005982344376145,25.005724059439977
6.712939008,1.000614866132837,24.84095528273205
6.715224064,1.0005929193510499,24.676158319206678
6.71750912,1.0005337611768959,24.511928043186668
6.719794176,1.0004411472223815,24.348739196882644
6.722079232,1.0003208181271455,24.187051378187945
6.724364288,1.000180413276819,24.027240210219635
6.726649344,1.0000286738483934,23.869492644614184
6.7289344,0.9998752699141891,23.713923206670295
6.731219456,0.9997298691519244,23.560475256432234
6.733504512,0.9996015247309016,23.408988991482214
6.735789568,0.9994984714438535,23.259161715361213
6.738074624,0.9994273082698909,23.110554810676568
6.74035968,0.9993924438742273,22.96266231273147
6.742644736,0.9993961594699563,22.81499529871989
6.744929792,0.9994383481756984,22.666947723050097
6.747214848,0.9995161642531548,22.517992458190292
6.749499904,0.9996249515757577,22.367640459688083
6.75178496,0.9997577345031686,22.215495500906258
6.754070016,0.9999062089431425,22.061295203331536
6.756355072,1.0000609205216058,21.90483875648119
6.75864064,1.000212233472341,21.74613610245414
6.760925696,1.000350464799684,21.58528572307003
6.763210752,1.0004669834308526,21.422535291253325
6.765495808,1.0005543796897243,21.258294127386517
6.767780864,1.000607221952372,21.09296827952706
6.77006592,1.000621878393128,20.92712688094854
6.772350976,1.000597639361322,20.76128504956988
6.774636032,1.0005359365965372,20.5960476038708
6.776921088,1.0004406496997895,20.431907389461884
6.779206144,1.0003176298758905,20.269287270881986
6.7814912,1.0001747147089062,20.10855099853531
6.783776256,1.0000208547530582,19.94993428286798
6.786061312,0.9998657510806367,19.793522797698312
6.788346368,0.9997192534086774,19.639231100904638
6.790631424,0.9995905729263332,19.48692431834268
6.79291648,0.9994878289631378,19.336269268727204
6.795201536,0.9994176143050136,19.18682078103923
6.797486592,0.9993842483577619,19.038080941835407
6.799771648,0.9993901391494201,18.889514063193463
6.802056704,0.9994346585534903,18.740524143946363
6.80434176,0.9995152480116462,18.59061740442088
6.806626816,0.9996267175582491,18.439251860988588
6.808911872,0.999762096416735,18.286067820101493
6.811196928,0.9999129062422414,18.13075470197363
6.813481984,1.0000695175501892,17.973191894249755
6.81576704,1.0002222148423823,17.813310514475596
6.818052096,1.0003611853338878,17.65128470963997
6.820337152,1.0004777638907718,17.487382362323757
6.822622208,1.0005645551567155,17.321947112174946
6.824907264,1.000616039651852,17.155457892074228
6.82719232,1.0006289646839244,16.988458811817853
6.829477376,1.0006024666028273,16.8215053168112
6.831762432,1.0005381925901031,16.655178536959777
6.834047488,1.0004400982015964,16.489989512824973
6.836332544,1.0003144622746514,16.32634400567154
6.8386176,1.0001690940144856,16.164627410356005
6.840902656,1.0000130757088161,16.0050415791867
6.843187712,0.9998563485380443,15.847700095680626
6.845472768,0.9997087786133152,15.692509269473963
6.847757824,0.9995796841295109,15.53928952871108
6.85004288,0.9994772515994195,15.387713404261648
6.852327936,0.9994079626145728,15.237345831492936
6.854612992,0.9993761537251045,15.087662369695506
6.856898048,0.9993840782486967,14.938123059173218
6.859183104,0.9994310896940943,14.788126876379359
6.86146816,0.9995143339804077,14.637158521994321
6.863753216,0.9996285258411644,14.484714044466799
6.866038272,0.9997665515226755,14.330379247277204
6.868323328,0.9999196528320325,14.173930057215761
6.870608384,1.0000781436564306,14.015124752480805
6.87289344,1.0002322138211248,13.854031108000154
6.875178496,1.0003719270793645,13.690769158896032
6.877463552,1.0004885543109971,13.525583567614394
6.879748608,1.0005747329496764,13.35889088721789
6.882033664,1.000624897039537,13.19115764329869
6.88431872,1.000636137800789,13.022921850819463
6.886603776,1.0006073303750964,12.854765447966571
6.888888832,1.0005405224949817,12.687268266123938
6.891173888,1.0004397073906746,12.520914679773478
6.893458944,1.000311387792031,12.356188245348728
6.895744,1.0001635633793364,12.193385580672654
6.898029056,1.0000054645823027,12.032778434448051
6.900314112,0.9998470217334143,11.874417731539651
6.902599168,0.9996983837231425,11.718237841043914
6.904884224,0.9995688000499968,11.564007989233227
6.90716928,0.9994665900396145,11.41144972709482
6.909454336,0.9993983376455583,11.260053753747558
6.911739392,0.9993680233881113,11.10935964614241
6.914024448,0.9993780274576058,10.958751278017766
6.916309504,0.9994274017078948,10.807673375640393
6.91859456,0.9995132662264077,10.655578329538296
6.920879616,0.9996302033183745,10.501962579271881
6.923164672,0.9997707189581745,10.346417098103233
6.925449728,0.9999262468005949,10.188681935566404
6.927734784,1.0000866632557959,10.028616744766033
6.93001984,1.0002420361815254,9.866206647563255
