freq,mag,phase
6.0,0.9992710267787718,0.2741115409359995
6.015267328,0.9994471780351591,-0.19904864949174708
6.030534144,0.9996469542761813,-0.6747198753616888
6.045801472,0.9998627103354549,-1.1530309590773318
6.0610688,1.0000850737132927,-1.6341916523922637
6.076336128,1.000304157487221,-2.1181645234594275
6.091602944,1.0005104905001592,-2.6049479220140057
6.106870272,1.0006951904240748,-3.0942326771834137
6.1221376,1.0008498520018565,-3.585789245361297
6.137404416,1.0009678589855895,-4.079183967713077
6.152671744,1.0010439566823535,-4.573927568140576
6.167939072,1.0010745971380524,-5.069533406660498
6.183205888,1.001058651319162,-5.565441239591683
6.198473216,1.0009963565737383,-6.0610895714253346
6.213740544,1.0008906481777144,-6.555888632388898
6.229007872,1.0007458934841822,-7.049470693850366
6.244274688,1.0005682221328265,-7.54126091429865
6.259542016,1.0003656297186787,-8.031015168887063
6.274809344,1.0001467445618049,-8.518384852936995
6.29007616,0.9999210267386769,-9.003317761638122
6.305343488,0.9996983483712416,-9.485710072256524
6.320610816,0.9994887162775048,-9.965759250910018
6.335877632,0.9993010521320812,-10.443532905391375
6.35114496,0.9991438734149539,-10.919434800213214
6.366412288,0.9990237013586475,-11.393890086021054
6.381679616,0.998946314831299,-11.867288287478857
6.396946432,0.9989151959828795,-12.340255592265137
6.41221376,0.9989316670923388,-12.813311996852669
6.427481088,0.9989949074724044,-13.287032578824201
6.442747904,0.9991026627221571,-13.761979059865793
6.458015232,0.9992499345672294,-14.238687072003975
6.47328256,0.9994306421136077,-14.717487813330203
6.488549376,0.9996366247244386,-15.198944793684749
6.503816704,0.9998592166512127,-15.683084157718733
6.519084032,1.0000886693028401,-16.170195676800027
6.53435136,1.0003147374509223,-16.660244120907763
6.549618176,1.0005277893613271,-17.153158190912993
6.564885504,1.0007183595450286,-17.648698958962793
6.580152832,1.000878134640048,-18.146568070994846
6.595419648,1.0009999696363403,-18.646342334415046
6.610686976,1.001078519063309,-19.14756082305465
6.625954304,1.0011103196416835,-19.649688561652656
6.64122112,1.0010938683710167,-20.152093789019478
6.656488448,1.0010297972614923,-20.654235598863753
6.671755776,1.0009206846848444,-21.155610442409312
6.687023104,1.0007713781626957,-21.655622438993074
6.70228992,1.0005880299994223,-22.153876213454048
6.717557248,1.0003788568536018,-22.64997205038832
6.732824576,1.0001526022673506,-23.143710899290177
6.748091392,0.9999194570515438,-23.63486895813541
6.76335872,0.9996893516038019,-24.123503477445755
6.778626048,0.9994724958209202,-24.60959201962038
6.793893376,0.9992782604703502,-25.093449353680537
6.809160192,0.9991154912207334,-25.575356967236818
6.82442752,0.9989910897615251,-26.055735180174306
6.839694848,0.9989105871171665,-26.535071673565007
6.854961664,0.9988778117442787,-27.0139419878919
6.870228992,0.9988943656231584,-27.492904198708906
6.88549632,0.9989592677935131,-27.97259818317966
6.900763136,0.999070201622303,-28.453540106670072
6.916030464,0.9992221446243515,-28.936254419171252
6.931297792,0.9994085968346867,-29.42127251389946
6.94656512,0.9996216249686705,-29.90887324864471
6.961831936,0.999851707655857,-30.399367240748628
6.977099264,1.0000890276949173,-30.89293020994729
6.992366592,1.0003232471439587,-31.389514580401638
7.007633408,1.0005439546722352,-31.889102699871025
7.022900736,1.000741695447504,-32.39139760649202
7.038168064,1.0009075168408845,-32.89615890187462
7.05343488,1.001034336008242,-33.40287721275483
7.068702208,1.0011165306598906,-33.91112627819965
7.083969536,1.0011503764582825,-34.42027079751799
7.099236864,1.0011342316640055,-34.92982977590946
7.11450368,1.0010686419274974,-35.439110741966466
7.129771008,1.0009565462296446,-35.94757574795001
7.145038336,1.0008024374671987,-36.454696914027835
7.160305152,1.0006131740378725,-36.959990009434996
7.17557248,1.000396773436689,-37.46310566863096
7.190839808,1.000162751095819,-37.963720785645286
7.206106624,0.9999210570918923,-38.46174138148683
7.221373952,0.9996823608777,-38.957086147417556
7.23664128,0.9994570313387037,-39.44989757110047
7.251908608,0.9992551287117465,-39.94033352313698
7.267175424,0.9990852869243215,-40.42877653728224
7.282442752,0.9989552857504294,-40.91561879740445
7.29771008,0.9988705996706538,-41.40136583151146
7.312976896,0.9988354421945511,-41.88665743145284
7.328244224,0.9988510531545483,-42.37206036830784
7.343511552,0.9989174385476206,-42.85811110459757
7.35877888,0.9990311388625259,-43.34552325215072
7.374045696,0.9991877896456801,-43.83477339557852
7.389313024,0.999380588478613,-44.32635184891878
7.404580352,0.9996009021777184,-44.8206579120477
7.419847168,0.9998394176833183,-45.31798282878377
7.435114496,1.000085748495187,-45.81845684133612
7.450381824,1.000329171425802,-46.3221046093218
7.46564864,1.0005589757982591,-46.828874843187656
7.480915968,1.000765124780988,-47.338479663331604
7.496183296,1.0009386241772855,-47.85065270800527
7.511450624,1.0010717606810537,-48.364879824130455
7.52671744,1.0011587392564574,-48.880750368214024
7.541984768,1.0011955087431006,-49.39761170385394
7.557252096,1.001180490968245,-49.914871991213964
7.572518912,1.001114095730348,-50.431879512765185
7.58778624,1.0009992863505077,-50.948068274270376
7.603053568,1.00084050212994,-51.462928895855185
7.618320384,1.0006448511318915,-51.975903751379114
7.633587712,1.0004208464961706,-52.48658357637679
7.64885504,1.0001779563725357,-52.994764257548184
7.664122368,0.9999266303660497,-53.50024296125658
7.679389184,0.9996779300895158,-54.00295613279135
7.694656512,0.999442973230026,-54.50296753741342
7.70992384,0.9992316425697538,-55.00057097061961
7.725190656,0.999053513374195,-55.49608678281435
7.740457984,0.9989162868841855,-55.98991277338371
7.755725312,0.9988262203976387,-56.48258408452288
7.770992128,0.9987873020174679,-56.974746326644514
7.786259456,0.9988014995899065,-57.46701317944313
7.801526784,0.9988679941713914,-57.95996898702049
7.816794112,0.9989845529389529,-58.454280977041606
7.832060928,0.9991457582562918,-58.950519795238044
7.847328256,0.9993449618890277,-59.449172822661716
7.862595584,0.9995733722086271,-59.95064321279546
7.8778624,0.9998212435025222,-60.455212152533235
7.893129728,1.00007777959988,-60.96311228962496
7.908397056,1.0003316337799415,-61.47433806652841
7.923663872,1.0005720192366976,-61.98877666945656
7.9389312,1.0007883375537692,-62.50624502236467
7.954198528,1.0009710056147925,-63.026381661221734
7.969465856,1.0011120513473737,-63.54872666937527
7.984732672,1.0012052433626037,-64.07275381018177
8.0,1.0012463097457431,-64.59791099642413
8.015267328,1.0012334576925996,-65.12348998263353
8.030534144,1.0011668753298064,-65.64890538502725
8.045801472,1.001049587475098,-66.17348025144273
8.0610688,1.0008862402265906,-66.69668450097345
8.076336128,1.0006841227436276,-67.21800721663789
8.091602944,1.00045158410848,-67.73694844677975
8.106870272,1.000198864500861,-68.25329558423796
8.1221376,0.999936783394554,-68.7668092394635
8.137404416,0.9996768501520507,-69.2774545245323
8.152671744,0.999430271940911,-69.78533324106836
8.167939072,0.9992081097932332,-70.29062784078018
8.183205888,0.9990197198430844,-70.79371448956296
8.198473216,0.9988737729408173,-71.29508534784077
8.213740544,0.9987765733272809,-71.79517861477042
8.229007872,0.9987326735747752,-72.29472868544663
8.244274688,0.9987439517836101,-72.79431347864124
8.259542016,0.9988102634024099,-73.2946191390057
8.274809344,0.9989288908322016,-73.79630105439453
8.29007616,0.9990946670387963,-74.29994848238168
8.305343488,0.9993005830821605,-74.80609597964296
8.320610816,0.9995377153343517,-75.31516798993992
8.335877632,0.9997959262031275,-75.82751512426114
8.35114496,1.0000637242724566,-76.34329208131716
8.366412288,1.0003298960854994,-76.86253334268314
8.381679616,1.000582515884008,-77.38519253568917
8.396946432,1.0008108187562232,-77.91103177423904
8.41221376,1.0010046075681973,-78.43970474149336
8.427481088,1.0011553654577916,-78.97072024157396
8.442747904,1.0012565639465885,-79.50354553329609
8.458015232,1.0013034383250765,-80.03759964088518
8.47328256,1.0012940328684559,-80.572162454546
8.488549376,1.001228340438816,-81.10659281974222
8.503816704,1.0011091107193832,-81.64021912336263
8.519084032,1.0009414417723685,-82.17244076550871
8.53435136,1.0007323917153343,-82.70270744517613
8.549618176,1.0004907762794977,-83.23060527256266
8.564885504,1.0002271888744552,-83.75574681481639
8.580152832,0.9999529601798269,-84.27796858929786
8.59542016,0.9996800511846239,-84.79717727252095
8.610686976,0.9994201060810183,-85.31347172649507
8.625953792,0.999184721011069,-85.82705993733339
8.641221632,0.9989841853215764,-86.33829406525292
8.656488448,0.9988273054195381,-86.8476714201173
8.671755264,0.9987212004408318,-87.35572035050275
8.687023104,0.9986705039651328,-87.86308391834055
8.70228992,0.9986776645023296,-88.37046805037008
8.71755776,0.9987426109630976,-88.87855659073949
8.732824576,0.9988627370807625,-89.38802766578458
8.748091392,0.9990329010461002,-89.89952418401893
8.763359232,0.9992457473501797,-90.41357487039294
8.778626048,0.9994924187608578,-90.93068966282615
8.793892864,0.9997620548241819,-91.45120838468391
8.809160704,1.0000429633674568,-91.9753006569868
8.82442752,1.0003230518595707,-92.50309437185668
8.839694336,1.0005900548728395,-93.03445228340428
8.854962176,1.0008326084354777,-93.56917961739353
8.870228992,1.0010396318899644,-94.10691071531035
8.885495808,1.001202488761751,-94.64718040943653
8.900763648,1.001313610082982,-95.18944068057003
8.916030464,1.0013683012237202,-95.73297261024281
8.93129728,1.0013636757438689,-96.27715171971909
8.94656512,1.001299950774401,-96.8212812125271
8.961831936,1.0011796438467775,-97.36462800927227
8.977098752,1.0010078856314604,-97.90655650862884
8.992366592,1.0007916582583445,-98.44647298739626
9.007633408,1.0005403905043424,-98.98391074354012
9.022901248,1.000264804652848,-99.51854433702499
9.038168064,0.9999767421110892,-100.05008849502032
9.05343488,0.9996887476872963,-100.57848863712847
9.06870272,0.9994133567411158,-101.10381301231169
9.083969536,0.9991624485866702,-101.62626300873576
9.099236352,0.9989471679146996,-102.14620491543548
9.114504192,0.9987771220845512,-102.66408813982707
9.129771008,0.9986596420861308,-103.18056590414577
9.145037824,0.9986002036847244,-103.69622950015197
9.160305664,0.9986015749321964,-104.21184822902846
9.17557248,0.9986638874882655,-104.72811856001495
9.190839296,0.9987847186275263,-105.24576474466706
9.206107136,0.9989589091515495,-105.76551608790206
9.221373952,0.9991791304511161,-106.28787083448313
9.236640768,0.9994359093162367,-106.81343724627725
9.251908608,0.9997180978541009,-107.34252831426107
9.267175424,1.0000138757270407,-107.8753992342647
9.28244224,1.0003100762361767,-108.41213228183155
9.29771008,1.0005938512378467,-108.95267073059289
9.312976896,1.000853139502833,-109.49679230320072
9.328244736,1.0010763073878293,-110.04414473377717
9.343511552,1.0012537481819206,-110.59422609070575
9.358778368,1.0013774135361488,-111.14646323680674
9.374046208,1.0014419684824911,-111.70017174810222
9.389313024,1.0014442508500503,-112.25461312791062
9.40457984,1.001383982184032,-112.8090655341151
9.41984768,1.0012635683332731,-113.36279563068466
9.435114496,1.0010878823986198,-113.9151410964943
9.450381312,1.000864399677385,-114.46541283647775
9.465649152,1.0006025439918453,-115.0131393918625
9.480915968,1.000313594598029,-115.5579081281503
9.496182784,1.0000099474159962,-116.09946037374797
9.511450624,0.9997046032046203,-116.63769008043215
9.52671744,0.9994109989563259,-117.17263816339266
9.541984256,0.999141868118342,-117.70451472377727
9.557252096,0.9989089670037636,-118.2336854339523
9.572518912,0.9987225224031905,-118.76064564304485
9.587786752,0.9985910008507243,-119.28598299170278
9.603053568,0.9985202050248245,-119.81040094929915
9.618320384,0.9985135280773778,-120.33465342381092
9.633588224,0.998571616982207,-120.85947468166347
9.64885504,0.9986919975869395,-121.38570360772847
9.664121856,0.9988696945546636,-121.91401117907503
9.679389696,0.9990973175928873,-122.44507383179088
9.694656512,0.9993650876954787,-122.97941251186755
9.709923328,0.9996615018126414,-123.51745595222445
9.725191168,0.9999739074140066,-124.059467316622
9.740457984,1.0002886568530722,-124.60560307953881
9.7557248,1.0005921591766966,-125.1557493396081
9.77099264,1.0008713249229175,-125.70974687123423
9.786259456,1.0011138195742244,-126.26721235871996
9.801526272,1.0013090945633412,-126.82767131723563
9.816794112,1.0014484115458364,-127.39048342640568
9.832060928,1.0015257427555848,-127.95497580848215
9.847327744,1.0015372294297504,-128.5203439529275
9.862595584,1.0014822571914956,-129.0858480199495
9.8778624,1.0013628466945241,-129.65068742835047
9.89313024,1.0011840544227877,-130.2141443850268
9.908397056,1.0009530931112034,-130.77549511647376
9.923663872,1.000679900326101,-131.33421524042842
9.938931712,1.000376012752567,-131.88983694916908
9.954198528,1.0000545711935165,-132.4420722055264
9.969465344,0.9997293285914434,-132.99077224703097
9.984733184,0.9994144600033903,-133.5359862267988
10.0,0.9991235409986283,-134.07787981327618
10.015266816,0.9988693918538392,-134.61683407871044
10.030534656,0.9986632048089061,-135.1533299384603
10.045801472,0.9985141805293674,-135.68800421356048
10.061068288,0.998429037112821,-136.22156425284467
10.076336128,0.9984116744740648,-136.75483913073057
10.091602944,0.9984633249763885,-137.28861294741907
10.10686976,0.9985818298976585,-137.82371160779772
10.1221376,0.998762484862695,-138.36093424221485
10.137404416,0.9989976211753704,-138.90097229254653
10.152672256,0.9992772767569579,-139.4444147639448
10.167939072,0.9995894937628264,-139.99175575897195
10.183205888,0.9999208652687248,-140.5432712250323
10.198473728,1.0002571754639624,-141.099150318322
10.213740544,1.0005837970145242,-141.65935941793865
10.22900736,1.0008864778061652,-142.2236884505788
10.2442752,1.0011523120254322,-142.79180025935375
10.259542016,1.0013693206749872,-143.36316391246697
10.274808832,1.0015281814170827,-143.93719122231806
10.290076672,1.0016215746756232,-144.51308762673636
10.305343488,1.001645285953767,-145.09008473688988
10.320610304,1.0015979814935014,-145.6673590456331
10.335878144,1.0014812835482527,-146.24406011691417
10.35114496,1.0013000361678162,-146.81936856619922
10.366411776,1.0010616555781882,-147.3925779237674
10.381679616,1.0007761688368506,-147.96304744238074
10.396946432,1.0004557769057876,-148.53030014220022
10.412213248,1.000113998731057,-149.09393379236988
10.427481088,0.9997656914631068,-149.65383277245536
10.442747904,0.999425629395586,-150.2099344139738
10.458015744,0.9991089069532525,-150.76248165395265
10.47328256,0.9988291557285229,-151.3117539746321
10.488549376,0.9985988727345144,-151.8583097373136
10.503817216,0.9984280625995781,-152.40277419592428
10.519084032,0.9983246625835395,-152.94591890804415
10.534350848,0.9982933343453809,-153.48856068664938
10.549618688,0.9983358034629813,-154.031590440995
10.564885504,0.998450683468971,-154.57589893265538
10.58015232,0.998633163158464,-155.12228652492269
10.59542016,0.9988758254123089,-155.67158419613935
10.610686976,0.9991682865664626,-156.2244065838237
10.625953792,0.9994982169205743,-156.7813301993945
10.641221632,0.9998514264952317,-157.34269716067013
10.656488448,1.0002127056948642,-157.9086922817021
10.671755264,1.0005665550692917,-158.47935054282993
10.687023104,1.000897521081913,-159.05448748360575
10.70228992,1.0011913212902308,-159.63373955251308
10.71755776,1.0014350458033516,-160.21662183364492
10.732824576,1.001617935912111,-160.80246832346984
10.748091392,1.0017319324968574,-161.39048271092526
10.763359232,1.001771620213958,-161.97984765377683
10.778626048,1.0017349638648319,-162.56967772731053
10.793892864,1.0016231298574634,-163.1590399660796
10.809160704,1.0014406976467132,-163.747074938047
10.82442752,1.001194927234345,-164.33299704379337
10.839694336,1.0008962805381107,-164.9160692522479
10.854962176,1.000557153029146,-165.49576349108773
10.870228992,1.0001921628242592,-166.0716353463782
10.885495808,0.9998167487853967,-166.64350084485346
10.900763648,0.999447273088545,-167.2112549040921
10.916030464,0.9990995330078588,-167.775076204837
10.93129728,0.9987888541067689,-168.33532392266198
10.94656512,0.9985288565063278,-168.89248762630228
10.961831936,0.9983310524058004,-169.44724205751461
10.977098752,0.9982044309841523,-170.00038611676558
10.992366592,0.9981547383845552,-170.55278252283358
11.007633408,0.9981848028222474,-171.10540232734678
11.022901248,0.9982934152643294,-171.65919578998628
11.038168064,0.9984765054911846,-172.2150345509843
11.05343488,0.9987264575923106,-172.77383865377465
11.06870272,0.9990327812102383,-173.3363388640318
11.083969536,0.9993825193797048,-173.9031034661803
11.099236352,0.9997608096042016,-174.47462759906662
11.114504192,1.0001513256377517,-175.0511218175385
11.129771008,1.000537342149434,-175.63264678635167
11.145037824,1.0009022771219516,-176.21908771823695
11.160305664,1.0012301361748757,-176.81007078825706
11.17557248,1.0015066553530803,-177.40507987407153
11.190839296,1.0017196164430033,-178.00346356971679
11.206107136,1.0018594245171395,-178.60440400686807
11.221373952,1.001919988598938,-179.20697637997873
11.236640768,1.0018980610838515,-179.81024802113888
11.251908608,1.0017939286532045,179.58676795842203
11.267175424,1.0016117548234342,178.98499341953593
11.28244224,1.001358891532888,178.3853676167809
11.29771008,1.0010460044905058,177.78866293431417
11.312976896,1.000685958930355,177.19552889853742
11.328244736,1.000293947532797,176.60644476292163
11.343511552,0.9998868566990289,176.02170336274165
11.358778368,0.9994820095702484,175.44142320336258
11.374046208,0.9990970979833277,174.86547543409057
11.389313024,0.9987486383438016,174.2935425693316
11.40457984,0.9984521420776069,173.72511891109468
11.41984768,0.9982206612337625,173.1595105360876
11.435114496,0.9980644160113897,172.5958553712077
11.450381312,0.9979910503802971,172.03324463429945
11.465649152,0.9980039537249502,171.47068310867914
11.480915968,0.998103164154271,170.90708502527602
11.496182784,0.9982848895209577,170.34145427181505
11.511450624,0.9985417240517658,169.77283967150709
11.52671744,0.9988630027085171,169.2003902447399
11.541984256,0.9992353572676046,168.6234055374733
11.557252096,0.9996427628317122,168.04137755696246
11.572518912,1.0000678907353395,167.45395008556463
11.587786752,1.0004925655621046,166.8610359422942
11.603053568,1.0008984738224826,166.26270123450013
11.618320384,1.0012679520471461,165.65930928923288
11.633588224,1.001585021383263,165.05136763822415
11.64885504,1.0018356378254532,164.43956215229088
11.664121856,1.0020086284428007,163.82473556006846
11.679389696,1.002096148181912,163.20785979715154
11.694656512,1.002093870000894,162.58997506761136
11.709923328,1.0020011972196388,161.97213998197
11.725191168,1.0018217577386455,161.35541032821519
11.740457984,1.0015626518358542,160.74078142230587
11.7557248,1.0012341950398695,160.12914149536863
11.77099264,1.000850323222021,159.52125827664025
11.786259456,1.0004269897195004,158.91769775240328
11.801526272,0.999982234369191,158.31886951349546
11.816794112,0.9995350971656509,157.72491093577523
11.832060928,0.9991046429607547,157.1357796091146
11.847327744,0.9987098276057033,156.55115676866328
11.862595584,0.998367834818401,155.97057603978203
11.8778624,0.9980937332396391,155.3933139297878
11.89313024,0.9978999236307651,154.81847101483595
11.908397056,0.997795392228586,154.24506378621956
11.923663872,0.9977852016915403,153.67197479086545
11.938931712,0.9978705195114884,153.09808815847137
11.954198528,0.998048136038178,152.5222579561373
11.969465344,0.9983111266488832,151.94338057791532
11.984733184,0.9986487066730365,151.36054553712543
12.0,0.9990465526184015,150.77286831992478
12.015266816,0.9994881959150127,150.1797636320502
12.030534656,0.9999546199013515,149.58078786030504
12.045801472,1.0004261096132023,148.9757715926646
12.061068288,1.0008822627369016,148.36473069822298
