freq,mag,phase
6.0,0.9999692637161285,32.695702391749556
6.007525888,0.9999944783269472,32.50990985519408
6.015051776,1.0000199138029522,32.323790558368785
6.022577664,1.000044418592066,32.137309558294724
6.030103552,1.0000667213449168,31.95051609230379
6.03762944,1.0000853680332176,31.76338417012981
6.045155328,1.000099470731086,31.576095426556478
6.052681216,1.0001082128684597,31.388598829707462
6.060207104,1.0001110261696933,31.201010154309838
6.067732992,1.0001077238377463,31.01341074065084
6.07525888,1.0000985474023723,30.825938062687154
6.082784768,1.0000839976144362,30.63857702111133
6.090310656,1.0000647800240612,30.451460595371852
6.097836544,1.0000419639553932,30.264645861979
6.105362432,1.0000169363381255,30.078100811326482
6.112887808,0.9999908905436047,29.891938965620444
6.120413696,0.9999653879128302,29.706100678709934
6.127939584,0.9999418800752043,29.52059820141786
6.135465472,0.9999216312298054,29.335384224904494
6.14299136,0.9999057166124594,29.150412907100964
6.150517248,0.9998952219262032,28.965639211787767
6.158043136,0.9998906107408787,28.780931657578112
6.165569024,0.9998921810072987,28.596252744387368
6.173094912,0.9998998182630215,28.411527768355974
6.1806208,0.99991324826618,28.226648624362067
6.188146688,0.9999315901274164,28.04152628081108
6.195672576,0.9999539219152375,27.85615210838196
6.203198464,0.99997901884766,27.670402553996727
6.210724352,1.000005413232673,27.484374891464718
6.21825024,1.0000317625705717,27.297928422298675
6.225776128,1.0000564995830383,27.111139985884915
6.233302016,1.00007827411023,26.92403625816956
6.240827904,1.0000958370896396,26.736655073604865
6.248353792,1.0001081704342196,26.54905315637692
6.25587968,1.0001146794778804,26.361336921382666
6.263405568,1.0001148581594113,26.173555852887866
6.270931456,1.0001088050354123,25.985815906474087
6.278457344,1.0000967597593793,25.79814076270644
6.285983232,1.0000792985517537,25.610705823578034
6.29350912,1.000057481892626,25.423519516578484
6.301035008,1.000032590794916,25.236666236476907
6.308560896,1.000005801344345,25.05015637267221
6.316086784,0.9999787117663311,24.864004997557508
6.323612672,0.999952930606429,24.67818105136676
6.331138048,0.9999296572460029,24.492701205914706
6.338663936,0.9999103886897266,24.307513405756538
6.346189824,0.9998961612390367,24.122556388986368
6.353715712,0.9998877469356794,23.937750589465836
6.3612416,0.9998856478564911,23.752979505637654
6.368767488,0.9998900616276192,23.568211676711496
6.376293376,0.9999006949997972,23.383323946513453
6.383819264,0.9999169579698953,23.19828825084727
6.391345152,0.9999379953552238,23.01296953028197
6.39887104,0.999962806212007,22.827340114270978
6.406396928,0.9999896851354838,22.641318268613645
6.413922816,1.0000173203845648,22.45498024226389
6.421448704,1.0000443043702159,22.2682370633036
6.428974592,1.00006885178414,22.081133246147562
6.43650048,1.000089820524243,21.89372265331445
6.444026368,1.0001059119573537,21.70606521743888
6.451552256,1.0001162720008894,21.518165461476112
6.459078144,1.0001203397524212,21.330211273531745
6.466604032,1.0001176211462743,21.14222655894218
6.47412992,1.0001085635257516,20.954338383824965
6.481655808,1.0000935078993132,20.766566256982767
6.489181696,1.0000732794175635,20.57904345139146
6.496707584,1.0000490494832894,20.391824804423315
6.504233472,1.000021982835756,20.20490770351758
6.51175936,0.9999937854193461,20.018395451424016
6.519285248,0.9999659970241818,19.832279423094256
6.526811136,0.9999400171139162,19.6464988650291
6.534337024,0.9999174114194691,19.461059817576103
6.5418624,0.9998994747597195,19.275873589981195
6.549388288,0.9998870736630793,19.09087219757003
6.556914176,0.9998811141502935,18.906023937033257
6.564440064,0.9998818486662205,18.721175379887065
6.571965952,0.9998893336453369,18.53632722890082
6.57949184,0.9999029329739628,18.35129548158706
6.587017728,0.9999221904115139,18.166051246460693
6.594543616,0.9999458748102261,17.980493654434856
6.602069504,0.999972811075106,17.794593852913792
6.609595392,1.0000013936256213,17.608299603864754
6.61712128,1.0000300658759893,17.42162122528994
6.624647168,1.0000572739479923,17.234580274992688
6.632173056,1.0000814378586755,17.047158202870826
6.639698944,1.00010119964962,16.859411748131805
6.647224832,1.0001155158583872,16.671471172647163
6.65475072,1.0001235890778073,16.483302767760975
6.662276608,1.0001247855236421,16.295109724886032
6.669802496,1.000119162647569,16.106958123000705
6.677328384,1.0001069179981559,15.918883130261051
6.684854272,1.0000888489439668,15.731006038164239
6.69238016,1.000065896823604,15.543446008825864
6.699906048,1.000039117028266,15.356171971641734
6.707431936,1.0000103135376786,15.169271297539208
6.714957824,0.9999809927781897,14.982773354989046
6.722483712,0.9999526054457056,14.796684679229246
6.7300096,0.9999268292241555,14.610914201601636
6.737535488,0.9999051968637964,14.425499749677053
6.745061376,0.9998888865533924,14.240318839852465
6.752587264,0.9998788048491802,14.055336028040122
6.76011264,0.9998755035985164,13.870403826716098
6.767638528,0.9998792257604265,13.685467826845521
6.775164416,0.9998898281176652,13.500481045805495
6.782690304,0.9999066224109868,13.315261793564904
6.790216192,0.9999288913997265,13.129791029270566
6.79774208,0.9999550972917913,12.943965427377806
6.805267968,0.9999841527387539,12.757773034024247
6.812793856,1.000014132784476,12.571189068778834
6.820319744,1.0000434843395027,12.384171331147387
6.827845632,1.00007061515732,12.196776615921548
6.83537152,1.000094078848516,12.009037602965874
6.842897408,1.0001123817629727,11.820974988649693
6.850423296,1.0001245476797733,11.632719813228473
6.857949184,1.0001299619622936,11.44434118336413
6.865475072,1.0001281806409845,11.255909070654678
6.87300096,1.0001192943536943,11.067547812295995
6.880526848,1.0001038886039724,10.879375174216324
6.888052736,1.0000827310564169,10.691388954859537
6.895578624,1.00005700844563,10.503773249099314
6.903104512,1.000028066723359,10.316471467570894
6.9106304,0.9999975968189865,10.129592907934377
6.918156288,0.9999671974177131,9.943107550242079
6.925682176,0.9999386570790574,9.75700731328557
6.933208064,0.9999135856022264,9.571306263619164
6.940733952,0.9998931955573696,9.385903983650262
6.94825984,0.9998789625038078,9.200700467390543
6.955785728,0.9998713381716832,9.015654741022193
6.963311616,0.9998710342722745,8.830685055446438
6.970837504,0.999878012079261,8.645670257842562
6.97836288,0.9998919087460266,8.460469731322764
6.985888768,0.9999118658589756,8.275066935092122
6.993414656,0.9999369356615128,8.089334199625991
7.000940544,0.9999656862258273,7.9032541338064615
7.008466432,0.9999965228902646,7.716712209001372
7.01599232,1.000027745321805,7.529796083754183
7.023518208,1.0000575099783722,7.342430328964917
7.031044096,1.0000843460714544,7.154700329033183
7.038569984,1.0001065269695981,6.966607689256211
7.046095872,1.0001230420155505,6.778237640878448
7.05362176,1.0001328012610258,6.589704653259409
7.061147648,1.0001352166695971,6.401055376633905
7.068673536,1.0001302254940847,6.21246060086021
7.076199424,1.0001180379819983,6.023935513092109
7.083725312,1.0000993524211106,5.835569816350207
7.0912512,1.000075068744243,5.647548144649655
7.098777088,1.0000466971222672,5.459873023096292
7.106302976,1.000015713629494,5.272601904363973
7.113828864,0.9999838149944499,5.085712901332158
7.121354752,0.9999528478347783,4.89928240174443
7.12888064,0.9999244448828573,4.71321007261297
7.136406528,0.9999001898556213,4.52751790866405
7.143932416,0.9998816473822871,4.342128112323116
7.151458304,0.9998696330435771,4.156924871372312
7.158984192,0.9998649060365655,3.971823273098571
7.16651008,0.9998678316392612,3.7867431086948713
7.174035968,0.9998781589064893,3.6015703742313945
7.181561856,0.9998954503043849,3.416215996760781
7.189087744,0.9999186693499776,3.230567790219039
7.19661312,0.9999465773948276,3.0445887466612684
7.204139008,0.9999775594204412,2.858141375117088
7.211664896,1.0000099852022206,2.671322581257315
7.219190784,1.0000420603264804,2.4840399407411646
7.226716672,1.0000719658454027,2.2963046580498334
7.23424256,1.0000980000786486,2.1082200394560213
7.241768448,1.0001187352460426,1.9197852050388258
7.249294336,1.0001329951527436,1.7311359796293262
7.256820224,1.0001399961892181,1.5422948408380956
7.264346112,1.0001392332831647,1.3533944856945646
7.271872,1.0001308826708009,1.1645588023044386
7.279397888,1.000115264595873,0.9758926443165015
7.286923776,1.0000932634679394,0.7874709889157941
7.294449664,1.0000660425023271,0.5993615361084663
7.301975552,1.0000351112858512,0.41167060256011784
7.30950144,1.0000021834447548,0.2243635001409887
7.317027328,0.9999691604670586,0.03752708307959474
7.324553216,0.999937929842553,-0.14887983814532624
7.332079104,0.9999100911415383,-0.3349041331894154
7.339604992,0.9998872478761538,-0.5205485729357632
7.34713088,0.9998706227928407,-0.705980595419927
7.354656768,0.9998612493663379,-0.8911880148038713
7.362182656,0.9998597520919329,-1.0763725708266854
7.369708544,0.9998661326707053,-1.2615469756335984
7.377234432,0.9998800008034777,-1.4469093804035957
7.38476032,0.9999006360537884,-1.632503085070744
7.392286208,0.9999270284927565,-1.8183691576032381
7.399812096,0.9999577216618764,-2.00468125829068
7.407337472,0.9999907522551752,-2.191420722038911
7.41486336,1.0000245547990483,-2.378630727345664
7.422389248,1.0000571457820213,-2.5662659423552996
7.429915136,1.0000868930840785,-2.7543578466461436
7.437441024,1.000111653214386,-2.942826801691288
7.444966912,1.000130514739361,-3.1315915562222623
7.4524928,1.000142369352893,-3.320572823027485
7.460018688,1.0001462086017088,-3.509691343103573
7.467544576,1.0001420110016155,-3.6988071783604757
7.475070464,1.0001300617015911,-3.887814819766041
7.482596352,1.000110838992074,-4.076639740289282
7.49012224,1.0000854355002637,-4.265141625584248
7.497648128,1.0000553464678963,-4.45327969032413
7.505174016,1.00002223075686,-4.641007755323918
7.512699904,0.9999877394945123,-4.828280485462257
7.520225792,0.999953905383475,-5.015072870519054
7.52775168,0.9999227029561234,-5.201438358121378
7.535277568,0.9998957154602383,-5.387438374107413
7.542803456,0.9998744895786812,-5.573103408064965
7.550329344,0.999860297066158,-5.75854080203428
7.557855232,0.9998539558436468,-5.943791549595386
7.56538112,0.9998558467646955,-6.129073548334037
7.572907008,0.9998658054211659,-6.314389528257028
7.580432896,0.9998833398392388,-6.499939140062228
7.587958784,0.999907556462535,-6.685762466487842
7.595484672,0.9999369586533361,-6.871922974102727
7.60301056,0.9999700937079685,-7.058554291149494
7.610536448,1.0000051376879546,-7.245664092595676
7.618062336,1.0000399424261301,-7.433250104195498
7.625587712,1.0000727827308402,-7.62128691593305
7.6331136,1.0001017670773966,-7.809733620741942
7.640639488,1.000125146853665,-7.998588346526208
7.648165376,1.0001417114663051,-8.187681414901299
7.655691264,1.0001505422923103,-8.377019930182714
7.663217152,1.0001511590597225,-8.566365365301015
7.67074304,1.0001433119202845,-8.755675713945848
7.678268928,1.0001275798587643,-8.944885171894509
7.685794816,1.0001047265652159,-9.133783838539545
7.693320704,1.0000762048049763,-9.322376603830007
7.700846592,1.0000432728236748,-9.510559167900546
7.70837248,1.0000079689987826,-9.698272931944068
7.715898368,0.9999721779463766,-9.885511123652286
7.723424256,0.999937881673375,-10.072297470140345
7.730950144,0.9999070251408152,-10.258640748570569
7.738476032,0.9998814633239541,-10.444576154541195
7.74600192,0.999862212987351,-10.63023086721721
7.753527808,0.9998509328634071,-10.815678518042303
7.761053696,0.9998479138716534,-11.001048682522038
7.768579584,0.999853408525758,-11.186415775406026
7.776105472,0.9998671358396735,-11.371939624114246
7.78363136,0.9998884466812864,-11.557683890996033
7.791157248,0.9999161081578343,-11.74378263661616
7.798683136,0.9999485087801814,-11.930276296563669
7.806209024,0.9999839793885229,-12.117253623130956
7.813734912,1.0000205634345338,-12.304723706182521
7.8212608,1.0000562002614612,-12.492685363155164
7.828786688,1.0000887924664303,-12.681114090599383
7.836312576,1.0001166305849556,-12.869978355129087
7.843837952,1.0001381475366542,-13.059194268150849
7.85136384,1.0001522753234215,-13.248641487478789
7.858889728,1.000157813971568,-13.438234418200658
7.866415616,1.000154594637389,-13.627861502498353
7.873941504,1.0001430693796087,-13.817404841435247
7.881467392,1.00012346357971,-14.006742872197437
7.88899328,1.0000970476231454,-14.195760295392462
7.896519168,1.0000651950807211,-14.384411171371049
7.904045056,1.0000297245307272,-14.572586119187491
7.911570944,0.9999924584755395,-14.760274550701675
7.919096832,0.9999557392216369,-14.947510385837141
7.92662272,0.9999213993129986,-15.134216139960717
7.934148608,0.9998913104184134,-15.320531599423424
7.941674496,0.9998674598074553,-15.506459120390936
7.949200384,0.9998507859526636,-15.692126449117536
7.956726272,0.9998426507641714,-15.877602711926636
7.96425216,0.9998431755865171,-16.063076275276675
7.971778048,0.9998525170248944,-16.248562982892032
7.979303936,0.9998702448773464,-16.434289744603955
7.986829824,0.9998952314887141,-16.620304101863738
7.994355712,0.9999263185735979,-16.8066819157771
8.0018816,0.9999615406244118,-16.99353220605192
8.009407488,0.999999179451549,-17.18090254100491
8.016933376,1.000037101122291,-17.368763567797675
8.024459264,1.0000729803945465,-17.55714465011232
8.031985152,1.0001050461879133,-17.745984439153908
8.03951104,1.0001314641457528,-17.935236449693946
8.047036928,1.000150573358496,-18.12480008132908
8.054562304,1.0001616305877248,-18.314608550413066
8.062088192,1.0001636385669903,-18.504479616284275
8.06961408,1.0001566315360584,-18.694349782129272
8.077139968,1.0001409660074179,-18.884074931315297
8.084665856,1.0001175090737495,-19.07354865416043
8.092191744,1.0000875090239683,-19.262668379862877
8.099717632,1.000052563519273,-19.45131937329437
8.10724352,1.0000147279773735,-19.639524401386915
8.114769408,0.9999759810976058,-19.82720105183151
8.122295296,0.9999385534023882,-20.014357870941318
8.129821184,0.9999045739883728,-20.201054834000185
8.137347072,0.9998757457334131,-20.387292268000767
8.14487296,0.9998538598426796,-20.573218724893767
8.152398848,0.999840186358607,-20.75891676757177
8.159924736,0.9998353972361108,-20.944499832583947
8.167450624,0.9998398896816557,-21.130036246752297
8.174976512,0.9998533670295793,-21.315752895923847
8.1825024,0.9998749962495911,-21.501651523907004
8.190028288,0.9999038935242825,-21.687948859617144
8.197554176,0.9999381908832424,-21.874659704785664
8.205080064,0.9999761405917156,-22.06187126345442
8.212605952,1.0000155789660712,-22.249637998131725
8.22013184,1.0000543505579544,-22.43793484089609
8.227657728,1.0000903127862888,-22.6267231520979
8.235183616,1.000121357702327,-22.815963059344675
8.242709504,1.0001458088774975,-23.005640856233825
8.250235392,1.0001623897191638,-23.19557266252577
8.25776128,1.0001698767784035,-23.385682988737557
8.265287168,1.0001680903480268,-23.575874488623917
8.272812544,1.0001570692078607,-23.765954331290658
8.280338432,1.00013718779582,-23.955837655547313
8.28786432,1.0001098336084198,-24.14541275538693
8.295390208,1.000076250586405,-24.33460172742291
8.302916096,1.0000384357566277,-24.52330739314259
8.310441984,0.9999984166232841,-24.711478484751897
8.317967872,0.9999584943931978,-24.899129868181003
8.32549376,0.9999208196821798,-25.086231637889433
8.333019648,0.9998874755967393,-25.27287286658088
8.340545536,0.9998604683722259,-25.459113448922732
8.348071424,0.9998410916571994,-25.645035549422104
8.355597312,0.9998305665129621,-25.83077223731172
8.3631232,0.9998297026099092,-26.016388211162365
8.370649088,0.999838225899129,-26.20212130537332
8.378174976,0.9998560213194168,-26.38799875798461
8.385700864,0.9998817947351782,-26.574209810978818
8.393226752,0.9999143266692175,-26.760796477099483
8.40075264,0.9999518817578938,-26.947862975375386
8.408278528,0.9999922241314911,-27.13548609428065
8.415804416,1.0000332119149364,-27.323611368179048
8.423330304,1.0000724383842596,-27.512372564016832
8.430856192,1.0001079716561103,-27.701608455974135
8.43838208,1.0001376674490092,-27.891286370818754
8.445907968,1.0001596542349507,-28.081347390395404
8.453433856,1.0001731087816998,-28.27167420668921
8.460959744,1.0001768784211185,-28.462089646589174
8.468485632,1.0001710357035594,-28.65254315640362
8.47601152,1.000155590731669,-28.842816143144077
8.483537408,1.0001315545543203,-29.03288304295397
8.491062784,1.0001001408023067,-29.222564065862176
8.498588672,1.0000632725669376,-29.41177570208111
8.50611456,1.000022733034673,-29.60047612250317
8.513640448,0.9999808869952109,-29.78862631278164
8.521166336,0.9999400484009535,-29.976222297440998
8.528692224,0.9999025488209758,-30.163287340647546
8.536218112,0.9998704643995203,-30.34987148064797
8.543744,0.999845503975075,-30.53610738272973
8.551269888,0.9998293020238312,-30.72202272363892
8.558795776,0.999822433801425,-30.907807920319385
8.566321664,0.9998255052481932,-31.09358558943257
8.573847552,0.9998384135313798,-31.279467576072914
8.58137344,0.9998604685471375,-31.46556726840615
8.588899328,0.9998903983035381,-31.65207219489484
8.596424704,0.9999266800098406,-31.83898829294033
8.603951104,0.9999671175766436,-32.02644755459097
8.61147648,1.000009431043838,-32.21447068709481
8.61900288,1.0000518209032208,-32.40309116749965
8.626528256,1.0000911949905245,-32.59227801663267
8.634054656,1.0001257002639412,-32.78198104567913
8.641580032,1.0001533977182144,-32.97211359307127
8.649106432,1.0001728443348232,-33.16256713021169
8.656631808,1.0001826553180513,-33.35322294767678
8.664158208,1.0001823923444546,-33.54397967546097
8.671683584,1.0001720713393092,-33.73467283050654
8.679209984,1.000152166441254,-33.9251557978043
8.68673536,1.0001238651659479,-34.115314409184684
8.69426176,1.0000886637992241,-34.30506176193798
8.701787136,1.0000485138451765,-34.49429517805983
8.709313536,1.0000055158439065,-34.68299079490079
8.716838912,0.999962189922806,-34.87111029690468
8.724365312,0.9999210182679139,-35.05862294219564
8.731890688,0.9998840594131826,-35.24566352220524
8.739417088,0.9998536569285132,-35.432220774898475
8.746942464,0.9998311852460439,-35.61840960670025
8.754468864,0.9998182783035222,-35.80439743782372
8.76199424,0.9998154525216139,-35.990259265025024
8.76952064,0.9998229537291655,-36.17619178738217
8.777046016,0.9998404979355955,-36.36225457978132
8.784572416,0.9998670514388563,-36.548637651231594
8.792097792,0.9999011165668116,-36.73541282570658
8.799624192,0.9999407248136714,-36.92271248961422
8.807149568,0.9999839347625585,-37.110619261207916
8.814674944,1.0000282263904583,-37.29911024399094
8.822201344,1.000071125440134,-37.48817947347253
8.82972672,1.000110319627089,-37.6778070566395
8.83725312,1.0001434242393037,-37.86798658502324
8.844778496,1.000168838186748,-38.05854387280578
8.852304896,1.0001849186084038,-38.24938868655311
8.859830272,1.0001908881906356,-38.44039176409269
8.867356672,1.0001862365425251,-38.63144581266595
8.874882048,1.0001713167344515,-38.82235474727282
8.882408448,1.0001467889276188,-39.01300687142715
8.889933824,1.0001142260737859,-39.203285710637516
8.897460224,1.000075286911495,-39.39308146380405
8.9049856,1.0000320582230218,-39.58234126804485
8.912512,0.9999869119115858,-39.77100976113347
8.920037376,0.9999425750071835,-39.95906553834509
8.927563776,0.9999012043188868,-40.14655263938462
8.935089152,0.9998654667283158,-40.33348914303677
8.942615552,0.9998371118362179,-40.52003960204208
8.950140928,0.9998178263357472,-40.706250567752036
8.957667328,0.9998086525049592,-40.89228570918868
8.965192704,0.9998102797470562,-41.07824585558436
8.972719104,0.9998223464202864,-41.26432169169879
8.98024448,0.9998445422064515,-41.45065819962258
8.98777088,0.9998756051934417,-41.637331933174075
8.995296256,0.9999136510187127,-41.82447155311656
9.002822656,0.9999567587191165,-42.012187566058785
9.010348032,1.000002349631103,-42.200502958312384
9.017874432,1.000048128417946,-42.38946515923433
