freq,mag,phase
6.0,1.0003822988954951,25.954052447924347
6.002285568,1.00036212995425,25.771405729774365
6.004571648,1.0003189792409906,25.589144129967952
6.006857216,1.0002556931451652,25.407580408814667
6.009142784,1.000176322542506,25.22697628215522
6.011428352,1.0000858370633203,25.047530866728383
6.013714432,0.9999899217097764,24.86934596832326
6.016,0.9998945953751264,24.69246561139313
6.018285568,0.999805851496055,24.516837260789227
6.020571648,0.999729335994777,24.342333844093783
6.022857216,0.9996697924978895,24.16875503504411
6.025142784,0.9996311781638609,23.99578842176794
6.027428352,0.99961574906878,23.82314846640075
6.029714432,0.9996245660103126,23.650463347953345
6.032,0.9996571053302747,23.477399702186364
6.034285568,0.9997112643007015,23.303646040335625
6.036571648,0.9997837481050256,23.12886837395949
6.038857216,0.9998698601681757,22.952881358127996
6.041142784,0.9999642491177607,22.775498402589612
6.043428352,1.0000609202941904,22.596621390764554
6.045714432,1.0001537783124281,22.416309687062952
6.048,1.000237096725482,22.234644282333022
6.050285568,1.0003054390993498,22.051799703516064
6.052571648,1.0003547046873271,21.868004821054264
6.054857216,1.0003815790936277,21.683587422190648
6.057142784,1.0003844565959517,21.498861785190286
6.059428352,1.0003630908702519,21.31419135843987
6.061714432,1.0003188883509213,21.129893651609603
6.064,1.0002546285748681,20.946303120376484
6.066285568,1.0001743354543022,20.763676634687
6.068571648,1.0000829792222181,20.582223430055024
6.070857216,0.9999864064886738,20.402043986510787
6.073142784,0.9998905322262959,20.223148446233402
6.075428352,0.9998016720404497,20.0455246928984
6.077714432,0.9997253102510995,19.86902261386124
6.08,0.9996661639226061,19.693398063414694
6.082285568,0.9996280280827616,19.518395523440155
6.084571648,0.9996133699905213,19.343701195908526
6.086857216,0.9996231805354913,19.16896683405847
6.089142784,0.9996566532302776,18.993805984566997
6.091428352,0.9997117945994243,18.817925119450567
6.093714432,0.9997853100436204,18.641043221003475
6.096,0.9998722901049103,18.46289118032899
6.098285568,0.9999673707829143,18.283335776685977
6.100571648,1.0000645066825384,18.10230185280218
6.102857216,1.0001578097605774,17.91978983478799
6.105142784,1.0002411008268588,17.735933750536965
6.107428352,1.0003093300632442,17.550868763857878
6.109714432,1.0003580390279796,17.364874128636636
6.112,1.0003843802796677,17.178235199394173
6.114285568,1.000386424039078,16.991314186353645
6.116571648,1.0003642226992848,16.804450277266866
6.118857216,1.0003190062916314,16.6179612151461
6.121142784,1.000253697496565,16.4322071017571
6.123428352,1.00017257205744,16.247405503240635
6.125714432,1.0000803797417492,16.06377048509543
6.128,0.9999831671158169,15.881416231061342
6.130285568,0.9998869624404821,15.700374474927123
6.132571648,0.9997977658273575,15.520600232167551
6.134857216,0.9997214515260211,15.34190801182355
6.137142784,0.9996625871961532,15.164105562822716
6.139428352,0.9996250681980949,14.986929912997635
6.141714432,0.9996111122406269,14.810025173234447
6.144,0.9996215656715706,14.633056919502092
6.146285568,0.9996560990434821,14.455673652056335
6.148571648,0.9997121129805632,14.277549154834146
6.150857216,0.9997865354719121,14.098385357214875
6.153142784,0.9998743285335975,13.917937408100924
6.155428352,0.9999700926340559,13.736060370922393
6.157714432,1.0000678955453117,13.552703730724733
6.16,1.000161414692082,13.3678628414687
6.162285568,1.0002448407871105,13.181638028865601
6.164571648,1.0003129063619058,12.994219263553173
6.166857216,1.0003613159885334,12.805863137745439
6.169142784,1.0003870552681433,12.616884298612343
6.171428352,1.0003883070081332,12.427591995211861
6.173714432,1.0003652482026713,12.238388831292609
6.176,1.0003192116565367,12.04957149368623
6.178285568,1.0002530225491242,11.861465198976406
6.180571648,1.0001708825981357,11.674344538618284
6.182857216,1.0000780025879268,11.488378284651052
6.185142784,0.9999801190106993,11.303726734278921
6.187428352,0.9998834559671457,11.120352916998131
6.189714432,0.9997941411384772,10.938229154574266
6.192,0.9997177695487105,10.757242523759185
6.194285568,0.9996591336103593,10.577122703335972
6.196571648,0.9996219505808291,10.397588642332604
6.198857216,0.9996085852741675,10.218354820783038
6.201142784,0.9996199301717322,10.039012456470664
6.203428352,0.9996552320331014,9.859239227328171
6.205714432,0.9997121843211713,9.6786944617257
6.208,0.999787484946088,9.497103392749208
6.210285568,0.9998760915893844,9.314192109184447
6.212571648,0.999972559444475,9.12988288446285
6.214857216,1.0000709172644433,8.944048810860771
6.217142784,1.0001648336380489,8.756704506844038
6.219428352,1.0002483535727889,8.568003209733181
6.221714432,1.000316401589831,8.378073660790402
6.224,1.0003645697610062,8.187221884731068
6.226285568,1.0003897789912617,7.995732125950122
6.228571648,1.0003904233150946,7.80395151589458
6.230857216,1.000366716564916,7.612216448926577
6.233142784,1.0003198398920818,7.420901279357769
6.235428352,1.00025278714225,7.230317647972549
6.237714432,1.0001698749049353,7.0407031213823865
6.24,1.000076216209184,6.852275689633419
6.242285568,0.9999778184495316,6.665132040498204
6.244571648,0.9998806590284076,6.479308696045148
6.246857216,0.9997909938651475,6.294714759694462
6.249142784,0.9997145781776454,6.111240978497994
6.251428352,0.9996560714634928,5.928626253222312
6.253714432,0.9996192088511272,5.746598314953094
6.256,0.9996063216139144,5.564835666287765
6.258285568,0.9996182147172398,5.382992800405416
6.260571648,0.9996543051161103,5.200668587580879
6.262857216,0.9997120729035832,5.017583236489799
6.265142784,0.9997881599923341,4.833411193230514
6.267428352,0.9998774824615123,4.647946076084802
6.269714432,0.9999746954174181,4.461013492645205
6.272,1.0000735358326693,4.2725693617668945
6.274285568,1.000167914296907,4.082597985892253
6.276571648,1.0002515822101792,3.891241693153469
6.278857216,1.0003196017092018,3.6986627701862744
6.281142784,1.0003675612759086,3.5051555686742026
6.283428352,1.00039246281932,3.311001152081101
6.285714432,1.0003927124158627,3.116581805357619
6.288,1.000368166898508,2.9222015281131473
6.290285568,1.000320701615004,2.7282405216651417
6.292571648,1.0002528772172488,2.535005099819179
6.294857216,1.0001691234570764,2.3427673612481184
6.297142784,1.0000748037957299,2.151688120339653
6.299428352,0.9999757705377447,1.9619152317401642
6.301714432,0.9998781270102185,1.7734657998149772
6.304,0.9997882160961725,1.5862462361783016
6.306285568,0.9997116760673832,1.4001399042462739
6.308571648,0.9996531036952435,1.214883041493942
6.310857216,0.9996165058868504,1.0302307304477913
6.313142784,0.9996040069175212,0.8458184150045394
6.315428352,0.9996165614170855,0.6612775072839897
6.317714432,0.9996530688239804,0.4762843185810643
6.32,0.9997116677211637,0.29050400918740904
6.322285568,0.9997884293998712,0.1036265323300589
6.324571648,0.999878542073213,-0.084571186091526
6.326857216,0.999976408070282,-0.27425345973259047
6.329142784,1.0000757970017273,-0.46546286621386834
6.331428352,1.0001705429977998,-0.6582081856307844
6.333714432,1.0002545646740952,-0.8523522228520021
6.336,1.00032268219301,-1.0476952520390466
6.338285568,1.0003704976872345,-1.2440261529249073
6.340571648,1.0003952700345609,-1.4409521926908182
6.342857216,1.0003949960334073,-1.6381990947868572
6.345142784,1.0003699808354805,-1.835370578647834
6.347428352,1.0003218379730092,-2.03212459565119
6.349714432,1.0002533716988766,-2.2281500109435126
6.352,1.0001688888196774,-2.423170169618661
6.354285568,1.0000739314563811,-2.6170409295105466
6.356571648,0.9999741044422078,-2.809587517330895
6.358857216,0.9998761226741343,-3.0008443744905935
6.361142784,0.9997857483663725,-3.1908339599455706
6.363428352,0.9997089106872438,-3.3797299042276174
6.365714432,0.9996503794772305,-3.567750403144719
6.368,0.9996138315051426,-3.755206023373561
6.370285568,0.9996016592447489,-3.9424191992900512
6.372571648,0.9996145825342119,-4.129746512401877
6.374857216,0.9996517973076683,-4.317549416617244
6.377142784,0.9997109142139664,-4.506193121408768
6.379428352,0.9997883800081309,-4.6959235516289635
6.381714432,0.999879200079581,-4.886985825105492
6.384,0.9999776624866802,-5.079552127874941
6.386285568,1.0000775260835444,-5.273666549827145
6.388571648,1.0001728604034463,-5.469305271764383
6.390857216,1.0002571933529287,-5.666345953715482
6.393142784,1.0003254610595451,-5.864636966051704
6.395428352,1.0003733946121478,-6.063897157525773
6.397714432,1.000397973844899,-6.263785391647007
6.4,1.0003974092007928,-6.463960638145092
6.402285568,1.0003719653375418,-6.664072964117703
6.404571648,1.000323216287727,-6.863779791174785
6.406857216,1.0002541579980153,-7.062739814959208
6.409142784,1.0001691839132143,-7.260708054881989
6.411428352,1.0000733731843978,-7.457499113514238
6.413714432,0.9999730454251882,-7.652984120808599
6.416,0.9998745610537253,-7.847158676638041
6.418285568,0.999783650812374,-8.040075361969036
6.420571648,0.999706599545236,-8.231877059289909
6.422857216,0.9996478095246558,-8.42284591786731
6.425142784,0.9996113216542203,-8.61321268880765
6.427428352,0.9995992861993196,-8.803377945535239
6.429714432,0.9996124311822066,-8.993672248954386
6.432,0.9996500988662022,-9.184441725328782
6.434285568,0.9997098541737054,-9.376037511205839
6.436571648,0.9997878690086244,-9.568741853917194
6.438857216,0.9998792944058029,-9.762819346821123
6.441142784,0.9999783113285543,-9.958397790615603
6.443428352,1.0000789248469288,-10.155523181086526
6.445714432,1.0001746520951227,-10.354202951254528
6.448,1.0002595152952147,-10.554305554160596
6.450285568,1.0003281116868212,-10.755667471063104
6.452571648,1.000376077868214,-10.957963972180357
6.454857216,1.0004004866635283,-11.160943992858083
6.457142784,1.0003999875195648,-11.364202634252374
6.459428352,1.0003742172968861,-11.567402720265608
6.461714432,1.0003251197466037,-11.770178820494282
6.464,1.0002554597013997,-11.97222950768409
6.466285568,1.0001698169433706,-12.173283456107997
6.468571648,1.0000734210319315,-12.373141187518488
6.470857216,0.9999726049000847,-12.571706558981777
6.473142784,0.9998734145212367,-12.768935061686715
6.475428352,0.9997820492389051,-12.964909226000259
6.477714432,0.9997045973033646,-13.159809330521398
6.48,0.9996455473509573,-13.353842970957249
6.482285568,0.9996089157460983,-13.547279526783933
6.484571648,0.9995968890716379,-13.740516517801726
6.486857216,0.9996102044231541,-13.93387671249582
6.489142784,0.9996481024450866,-14.1277437260784
6.491428352,0.9997082757541957,-14.322423406638114
6.493714432,0.9997867663684251,-14.51826385510658
6.496,0.9998787567913584,-14.715450216438198
6.498285568,0.999978555517683,-14.914145629565235
6.500571648,1.0000796405956296,-15.114424208108497
6.502857216,1.000175912045024,-15.316281159797619
6.505142784,1.0002611501654677,-15.519576951178646
6.507428352,1.0003302469076836,-15.724082644425033
6.509714432,1.0003784553706965,-15.92959534445376
6.512,1.0004031393872002,-16.13577921819519
6.514285568,1.0004024780506866,-16.34223412192098
6.516571648,1.000376687153954,-16.548662243029614
6.518857216,1.000327185031381,-16.75464192369278
6.521142784,1.0002571418926498,-16.95991226718882
6.523428352,1.0001709662070795,-17.16417399124677
6.525714432,1.0000740492653613,-17.367260644429063
6.528,0.9999724980073238,-17.569025052683877
6.530285568,0.9998726367894608,-17.769460907349174
6.532571648,0.9997808522851154,-17.968645330605412
6.534857216,0.9997027539988542,-18.166719251478934
6.537142784,0.9996434377946865,-18.363941221612265
6.539428352,0.9996064720390929,-18.56060547373021
6.541714432,0.9995943300148165,-18.757018991000287
6.544,0.999607690536365,-18.953585037190525
6.546285568,0.9996458673553994,-19.15065223621173
6.548571648,0.9997062201446668,-19.34855638279878
6.550857216,0.999785192299944,-19.54760661119671
6.553142784,0.9998777368248806,-19.748036292503567
6.555428352,0.9999780679352227,-19.950006683252436
6.557714432,1.0000797890754376,-20.153551902286125
6.56,1.000176761118985,-20.358680620034928
6.562285568,1.0002626119776326,-20.56524404955611
6.564571648,1.0003321119069786,-20.773084283501305
6.566857216,1.0003808756603878,-20.981922596955258
6.569142784,1.0004057353286324,-21.191400685851214
6.571428352,1.0004051754806793,-21.40119362065411
6.573714432,1.0003793459930406,-21.610952841901593
6.576,1.0003296332894238,-21.82027164412906
6.578285568,1.0002593967283624,-22.0288724953834
6.580571648,1.0001727344311255,-22.236498300411604
6.582857216,1.0000753076763356,-22.442899648419214
6.585142784,0.9999731791970977,-22.647992422573743
6.587428352,0.9998726518247391,-22.85177557101867
6.589714432,0.9997801831867331,-23.054298436499533
6.592,0.9997015180748144,-23.25568990924833
6.594285568,0.999641714828494,-23.456228101846882
6.596571648,0.9996043212094745,-23.65619324494574
6.598857216,0.9995918634941959,-23.855924068875286
6.601142784,0.9996051198451876,-24.05581540104483
6.603428352,0.999643193757376,-24.256202251016116
6.605714432,0.9997038221916146,-24.457435528016507
6.608,0.999783095985579,-24.65982323005049
6.610285568,0.9998761458753828,-24.863596649982608
6.612571648,0.9999770148299086,-25.068906703802757
6.614857216,1.0000794768856405,-25.275815574417795
6.617142784,1.0001771218592759,-25.484318653213275
6.619428352,1.0002636291298554,-25.694285580409883
6.621714432,1.0003337786004962,-25.90552970474326
6.624,1.0003830222007069,-26.117774740727587
6.626285568,1.0004082772446048,-26.330687848811856
6.628571648,1.0004081194219898,-26.543940609633346
6.630857216,1.000382299268567,-26.757137006172254
6.633142784,1.0003325867108785,-26.969924662214797
6.635428352,1.0002620889071219,-27.18197466484289
6.637714432,1.0001750623707815,-27.393047401733504
6.64,1.0000771365601302,-27.602887252005893
6.642285568,0.9999743618778556,-27.8114621549816
6.644571648,0.999873234164446,-28.018674588080923
6.646857216,0.9997800454277623,-28.22461894556692
6.649142784,0.9997006288312383,-28.429447979593185
6.651428352,0.9996401397419168,-28.63341971983564
6.653714432,0.999602201175335,-28.836791686870853
6.656,0.9995893142334766,-29.039942264361454
6.658285568,0.9996023674186788,-29.243247806211578
6.660571648,0.9996403139877856,-29.44705150597902
6.662857216,0.9997009220991345,-29.651721124946633
6.665142784,0.9997805419831023,-29.857516312026682
6.667428352,0.9998739762578862,-30.064737370874465
6.669714432,0.9999754446916657,-30.27348153570964
6.672,1.000078487899077,-30.483862808353788
6.674285568,1.000176784735936,-30.695830285310308
6.676571648,1.0002641475075214,-30.90928591127649
6.678857216,1.0003350339081822,-31.124022297728683
6.681142784,1.000385005707952,-31.339768771924554
6.683428352,1.0004108933969094,-31.556207642907616
6.685714432,1.0004110809324003,-31.772994185618217
6.688,1.0003856221841707,-31.98973422067072
6.690285568,1.0003359385610193,-32.20606508669156
6.692571648,1.0002653137234376,-32.42168494251234
6.694857216,1.000178084707659,-32.636308116264914
6.697142784,1.0000798006590523,-32.849715193162275
6.699428352,0.9999763570463829,-33.06181748128544
6.701714432,0.99987452832641,-33.272581153898635
6.704,0.9997805456972209,-33.48206875255255
6.706285568,0.9997003932381104,-33.69042566611829
6.708571648,0.9996389935973589,-33.89791288048455
6.710857216,0.9996003818804686,-34.10481618101671
6.713142784,0.9995868585792458,-34.31147225629029
6.715428352,0.9995994539692898,-34.51827768070351
6.717714432,0.9996372148093191,-34.72556963159088
6.72,0.9996977997692236,-34.93372002829896
6.722285568,0.9997775161577035,-35.143044027707845
6.724571648,0.999871214980457,-35.35375897231116
6.726857216,0.9999732791509622,-35.566032450788406
6.729142784,1.0000770016976142,-35.77994058209071
6.731428352,1.0001762036651778,-35.995459861377746
6.733714432,1.0002643065849566,-36.21246617355319
6.736,1.0003360666633803,-36.430792132199386
6.738285568,1.0003868983775064,-36.65011766677751
6.740571648,1.000413513194901,-36.870170057745995
6.742857216,1.0004143525854,-37.09056734977436
6.745142784,1.000389326952624,-37.31092909884858
6.747428352,1.0003399170533864,-37.53090457932804
6.749714432,1.0002692677347564,-37.75017152657205
6.752,1.0001818578344484,-37.96841477265713
6.754285568,1.0000830632381774,-38.18547490715049
6.756571648,0.9999789689737559,-38.401214478349985
6.758857216,0.9998763394167965,-38.61560208702433
6.761142784,0.9997814899308496,-38.82869969982557
6.763428352,0.9997003844219414,-39.04067336186679
6.765714432,0.9996381290245682,-39.25173957452289
6.768,0.9995985688105441,-39.46223917259529
6.770285568,0.9995842805198486,-39.67248556741438
6.772571648,0.9995961992460083,-39.882836955035195
6.774857216,0.999633534699583,-40.09370721264529
6.777142784,0.9996939373768903,-40.305435048246636
6.779428352,0.9997736687072719,-40.51829863805738
6.781714432,0.9998677076144168,-40.73258307129168
6.784,0.9999701962939117,-40.94842862642886
6.786285568,1.000074751256877,-41.16592276938736
6.788571648,1.0001746882729556,-41.385034008725846
6.790857216,1.0002638080468857,-41.605670840517014
6.793142784,1.0003365475292225,-41.82759001136774
6.795428352,1.0003884754792856,-42.05058365624287
6.797714432,1.0004160300346596,-42.27429844036958
6.8,1.0004176204371542,-42.49838240679356
6.802285568,1.0003932924324181,-42.72241665525123
6.804571648,1.0003442125366369,-42.946093508029044
6.806857216,1.0002737625139944,-43.169060057352645
6.809142784,1.0001861748624181,-43.391002767927894
6.811428352,1.0000869609810001,-43.611765389277885
6.813714432,0.9999823428628437,-43.831201936812285
6.816,0.9998789300966491,-44.04928917004689
6.818285568,0.9997831443482027,-44.26606061722345
6.820571648,0.9997009717019644,-44.48169854437054
6.822857216,0.9996375566958339,-44.69644502908675
6.825142784,0.9995969705132552,-44.910554591673424
6.827428352,0.9995817986569338,-45.12442587395385
6.829714432,0.9995928309829094,-45.338410059317
6.832,0.9996295235764606,-45.55289222016814
6.834285568,0.9996896124025324,-45.76821328079126
6.836571648,0.9997692310760588,-45.98468864165836
6.838857216,0.9998635273388271,-46.2025874436552
6.841142784,0.9999664770241474,-46.42203008929036
6.843428352,1.0000716630459,-46.64312845476587
6.845714432,1.0001726331227692,-46.86587947851337
6.848,1.0002628133838931,-47.09015823798089
6.850285568,1.0003366752410354,-47.315758930733026
6.852571648,1.0003896954524363,-47.54243487848091
6.854857216,1.0004184155848357,-47.76983676376404
6.857142784,1.0004209182883106,-47.99761134917799
6.859428352,1.0003974090522578,-48.225392874183434
6.861714432,1.0003488649780754,-48.45280514294142
6.864,1.0002786443893275,-48.67950535405871
6.866285568,1.0001911487434714,-48.90521802200682
6.868571648,1.000091576675407,-49.12972033850351
6.870857216,0.9999864469850968,-49.352902047607856
6.873142784,0.999882147722371,-49.57469577817714
6.875428352,0.9997852718505744,-49.795209052471144
6.877714432,0.9997019151700377,-50.01455830477105
6.88,0.9996373607179286,-50.23298762838733
6.882285568,0.9995956257774287,-50.45077538812233
6.884571648,0.9995791705505401,-50.668305323558144
6.886857216,0.9995892578264479,-50.885942446788405
6.889142784,0.9996252301505647,-51.10403627398603
6.891428352,0.999684867988819,-51.32297890937348
6.893714432,0.9997642565378687,-51.543069105169586
6.896,0.9998586547420385,-51.764559143092505
6.898285568,0.9999621147686472,-51.987643794752096
6.900571648,1.0000680144500338,-52.212365304291254
6.902857216,1.0001698337264937,-52.43875425297016
6.905142784,1.000261221285436,-52.66666093440458
6.907428352,1.000336464535687,-52.89595827035378
6.909714432,1.0003907583274838,-53.12630488682882
6.912,1.0004207796042626,-53.357431421188856
6.914285568,1.0004245156259384,-53.58893534181102
6.916571648,1.0004018290162642,-53.820474183421474
6.918857216,1.000354225167776,-54.05162619781461
6.921142784,1.0002843564203425,-54.28208347171637
6.923428352,1.0001969139780806,-54.51157623050333
6.925714432,1.0000970815426917,-54.739849037617844
6.928,0.999991283083475,-54.96674837091877
