freq,mag,phase
6.0,0.999970964183622,-131.2359745836446
6.031496192,0.9999809513885579,-132.92393730152563
6.062991872,0.9999913128211658,-134.61190528065174
6.094488064,1.0000020029409327,-136.29988501292422
6.125984256,1.0000127715803173,-137.9878673928277
6.157480448,1.0000233589804273,-139.67587562119763
6.188976128,1.000033471363893,-141.36380174639254
6.22047232,1.0000431838657144,-143.05170743775864
6.251968512,1.0000520404131612,-144.73948837535355
6.283464704,1.000060078585845,-146.42722862202254
6.314960384,1.0000670173111863,-148.11483422166904
6.346456576,1.0000727957453144,-149.80231785342528
6.377952768,1.0000771951984022,-151.48962683317544
6.40944896,1.00008028641779,-153.17677032823798
6.44094464,1.0000818266672222,-154.863666418601
6.472440832,1.0000818706929662,-156.55035827138465
6.503937024,1.0000803880358655,-158.2367782603759
6.535433216,1.0000773865427002,-159.92291288300694
6.566928896,1.0000729643755486,-161.60873943899236
6.598425088,1.0000671403051404,-163.29418038075144
6.62992128,1.00006014936511,-164.97931261700515
6.661417472,1.0000518949978907,-166.66405842533078
6.692913152,1.000042651342297,-168.3483569316241
6.724409344,1.000032527084751,-170.03224854352516
6.755905536,1.000021803290033,-171.71570240038162
6.787401728,1.0000106997908034,-173.39869931822193
6.818897408,0.9999992845783029,-175.08119328530603
6.8503936,0.9999878432889795,-176.7632143233514
6.881889792,0.9999766585002788,-178.4447357578906
6.913385984,0.9999658103965557,179.8742692000865
6.944881664,0.9999555618113763,178.19378325337942
6.976377856,0.9999463144454772,176.5138400360442
7.007874048,0.9999379034970423,174.8343994211091
7.03937024,0.9999306921255294,173.15551633483534
7.07086592,0.9999247636979434,171.47712336934595
7.102362112,0.9999202806416408,169.79930628077497
7.133858304,0.9999173310516369,168.12200832480013
7.165354496,0.9999158842568586,166.44521681808192
7.196850176,0.9999161405778538,164.76896995803605
7.228346368,0.9999180357486781,163.09325253930453
7.25984256,0.9999215954990239,161.41802296354115
7.291338752,0.9999266704604248,159.74335553428986
7.322834432,0.9999331732730138,158.06916282613335
7.354330624,0.9999410720163009,156.395474920078
7.385826816,0.9999500716225789,154.72232245827067
7.417323008,0.9999602245441042,153.04963685614806
7.448818688,0.9999712903085141,151.37748382445068
7.48031488,0.9999829841571622,149.70581396693137
7.511811072,0.9999949801834576,148.0346714950155
7.543307264,1.0000073797349311,146.3640225094424
7.574802944,1.0000195735156538,144.69391545071437
7.606299136,1.000031579178841,143.0242902957871
7.637795328,1.0000431577467332,141.35522138217485
7.66929152,1.0000540177754393,139.68670476027717
7.7007872,1.0000638266653612,138.01873286545157
7.732283392,1.000072657539415,136.35133823932975
7.763779584,1.000080177617962,134.68449874449766
7.795275776,1.0000861752411072,133.01826460937522
7.826771456,1.0000905995949814,131.35267160495755
7.858267648,1.0000933460768213,129.68768937052363
7.88976384,1.000094415382937,128.02336608388217
7.921260032,1.0000936525821276,126.35969281763579
7.952755712,1.0000911419204066,124.69671456139932
7.984251904,1.0000869420601124,123.03442801359064
8.015748096,1.0000810054203084,121.37286220662978
8.047244288,1.00007350555125,119.71204380798775
8.078739968,1.0000646407098852,118.0519350193626
8.11023616,1.0000544436484553,116.39261701658985
8.141732352,1.0000432117892444,114.73408579673432
8.173228544,1.0000310527367133,113.07629691668141
8.204724224,1.000018361348873,111.41931274572775
8.236220416,1.0000050755960874,109.76312837415601
8.267716608,0.9999918342988334,108.10774288882226
8.2992128,0.9999785321962747,106.45315317998386
8.33070848,0.9999655967061618,104.79936870337802
8.362204672,0.999953387720134,103.14636760360399
8.393700864,0.9999418879457096,101.49415780964209
8.425197056,0.9999314917777741,99.84275849799766
8.456692736,0.9999224238741733,98.19210399903152
8.488188928,0.9999148066674661,96.54220815374067
8.51968512,0.9999087836399485,94.8930569226535
8.551181312,0.9999045189097284,93.24465670047327
8.582676992,0.9999021139088643,91.59696353709343
8.614173696,0.9999016163156673,89.94996863812759
8.645668864,0.9999030134094512,88.30366164441432
8.677165056,0.99990623744944,86.65803176996249
8.708661248,0.9999114355570453,85.01301071068846
8.74015744,0.9999183872071371,83.3686564042987
8.771653632,0.9999269764689127,81.72491231287984
8.803149824,0.9999371581588594,80.0817543538276
8.834646016,0.9999484598899463,78.43917255511937
8.866142208,0.9999610799341895,76.79717616947329
8.897637376,0.9999744606519536,75.15573731879964
8.929133568,0.9999883699676098,73.51484815017943
8.96062976,1.0000027967318104,71.8744892393954
8.992125952,1.0000172509268468,70.23464742360827
9.023622144,1.000031414732534,68.5953653336125
9.055118336,1.0000451836809594,66.9565793028601
9.086614528,1.000058185510743,65.31831366211952
9.11811072,1.0000701399505234,63.68057342710325
9.149605888,1.000080789188397,62.04336609030881
9.18110208,1.000090059630336,60.40669275454654
9.212598272,1.0000976759290419,58.770568869572124
9.244094464,1.0001033799384675,57.13498226038175
9.275590656,1.0001072866190734,55.49993078488111
9.307086848,1.0001090624217965,53.865471351842366
9.33858304,1.0001087929918422,52.231569926790804
9.370079232,1.00010643333172,50.598273603660864
9.4015744,1.000101959440842,48.96554665107644
9.433070592,1.0000954790064724,47.33343447768445
9.464566784,1.000087126469286,45.70192282201709
9.496062976,1.0000770999428015,44.0710408886336
9.527559168,1.0000655025185792,42.44076836837342
9.55905536,1.0000525068335133,40.81113795144887
9.590551552,1.00003847681781,39.18211925358337
9.622047744,1.0000235078548867,37.5537438592541
9.653542912,1.000008056601286,35.92600827748812
9.685039104,0.9999923507809139,34.29887585590562
9.716535296,0.9999766829287663,32.67235771724157
9.748031488,0.9999614369501534,31.046461243749675
9.77952768,0.9999467200446455,29.421153309799905
9.811023872,0.9999329431381523,27.796418229035506
9.842520064,0.9999204347849203,26.172244035666477
9.874016256,0.9999092909790895,24.548620911434554
9.905511424,0.9998999398906208,22.925511693404474
9.937007616,0.9998923625344472,21.302900188678223
9.968503808,0.9998869743988164,19.680774663518598
10.0,0.9998836502906316,18.059073023953044
10.031496192,0.999882545344082,16.43781377743947
10.062992384,0.9998837932788326,14.816942991844599
10.094488576,0.9998873580195596,13.196419659628466
10.125983744,0.9998930710533128,11.576250697753059
10.157479936,0.9999009315375397,9.956370088338804
10.188976128,0.9999107808386551,8.336774259019633
10.22047232,0.9999224789510838,6.717448005817518
10.251968512,0.9999357205241627,5.09834529455959
10.283464704,0.9999504006181118,3.479437686449117
10.314960896,0.9999660937702385,1.860720863384246
10.346457088,0.9999825283974407,0.24218465078815588
10.377952256,0.9999994831455098,-1.3761975853181505
10.409448448,1.0000165249535895,-2.9944661650528164
10.44094464,1.0000333645616488,-4.6125660741720935
10.472440832,1.0000496576231397,-6.230586723582381
10.503937024,1.0000651357267545,-7.848468485384733
10.535433216,1.0000794659211887,-9.46624719054185
10.566929408,1.0000922845371916,-11.08390619697003
10.5984256,1.0001033824835224,-12.701456778615224
10.629920768,1.0001125874057906,-14.318894704508903
10.66141696,1.0001195386930275,-15.936211799540262
10.692913152,1.0001242293603405,-17.553406061796064
10.724409344,1.0001264391566862,-19.17046568659521
10.755905536,1.0001261736674256,-20.787391613414425
10.787401728,1.0001234524086648,-22.404152188112636
10.81889792,1.0001181384814668,-24.02076285361274
10.850394112,1.000110438962901,-25.63719778594317
10.88188928,1.000100562487555,-27.25345668097256
10.913385472,1.0000883997910894,-28.86953068640525
10.944881664,1.0000745198778556,-30.485415247784324
10.976377856,1.0000588383493116,-32.10110326802871
11.007874048,1.000041872995138,-33.716611045803106
11.03937024,1.0000238258075391,-35.331911329198746
11.070866432,1.0000050424215865,-36.9470176291967
11.102362624,0.9999860299789364,-38.56195931792253
11.133857792,0.9999669952861282,-40.17671876883761
11.165353984,0.9999482963268677,-41.791305020355004
11.196850176,0.9999303856755863,-43.4057438975716
11.228346368,0.9999136010536361,-45.02007144104123
11.25984256,0.9998982444340696,-46.634266267831045
11.291338752,0.9998846610650401,-48.24838400014342
11.322834944,0.9998730907481989,-49.8624409024921
11.354331136,0.9998637334093209,-51.47645209833187
11.385826304,0.9998570329907087,-53.09047749064994
11.417322496,0.9998528650775316,-54.70451026235756
11.448818688,0.9998515343719677,-56.318627901040024
11.48031488,0.9998528638932663,-57.932806440556476
11.511811072,0.9998570942240227,-59.54712920648031
11.543307264,0.9998640141970969,-61.16160216860807
11.574803456,0.9998736172430606,-62.776264907971786
11.606299648,0.9998856769011716,-64.3911533160024
11.637794816,0.9999000574027815,-66.00628459717215
11.669291008,0.9999163494516599,-67.6216817072396
11.7007872,0.9999344026884727,-69.23741159099069
11.732283392,0.9999539372873298,-70.85345494443239
11.763779584,0.99997428967671,-72.46983879475184
11.795275776,0.9999954144715837,-74.08659611728763
11.826771968,1.0000167336068766,-75.70371585582943
11.85826816,1.0000379398484922,-77.32124061556965
11.889763328,1.0000584582002146,-78.93915494561236
11.92125952,1.000077972542179,-80.5574669420768
11.952755712,1.0000961638744665,-82.17618442155367
11.984251904,1.0001126099292685,-83.79530051851165
12.015748096,1.000126962938894,-85.41480786752848
12.047244288,1.0001389332269377,-87.03470650527333
12.07874048,1.0001482567199507,-88.65496636263897
12.110236672,1.0001546213700088,-90.27559753710496
12.14173184,1.0001582603698105,-91.8965842219655
12.173228032,1.000158585322002,-93.51789542243263
12.204724224,1.0001559264051825,-95.13951691402801
12.236220416,1.0001500018929224,-96.76144154503879
12.267716608,1.0001411627053325,-98.38365770550907
12.2992128,1.0001294249017958,-100.0061292813815
12.330708992,1.000115008864733,-101.62886230436698
12.362205184,1.0000981280233103,-103.251825816554
12.393700352,1.000079169960786,-104.87503646855765
12.425196544,1.0000584682021894,-106.49845291531643
12.456692736,1.0000363138960116,-108.12209021187154
12.488188928,1.000013198501177,-109.74593398471995
12.51968512,0.9999895846610728,-111.3699900088344
12.551181312,0.9999659628217897,-112.99426640468663
12.582677504,0.9999426182540931,-114.61875052891966
12.614173696,0.9999202548361191,-116.24348016651956
12.645668864,0.9998990537462513,-117.86847457677122
12.677165056,0.9998796475279841,-119.49370905124701
12.708661248,0.9998623770614815,-121.11924205288051
12.74015744,0.9998474591449037,-122.74507355703594
12.771653632,0.9998354755274464,-124.37124702984792
12.803149824,0.9998265331333918,-125.9977939691647
12.834646016,0.9998208407604936,-127.62471479616771
12.866142208,0.9998185915012878,-129.2520717785734
12.897637376,0.9998198608470222,-130.8798876929781
12.929133568,0.9998246765781166,-132.50820237678477
12.96062976,0.9998328992478963,-134.13703830420815
12.992125952,0.9998445184672103,-135.7664203622193
13.023622144,0.999859301824566,-137.39641107772536
13.055118336,0.9998770193552836,-139.02701415710447
13.086614528,0.9998972659770676,-140.65825675704886
13.11811072,0.99991984265497,-142.29016556792791
13.149605888,0.9999441911640344,-143.92277913073278
13.18110208,0.9999699120086897,-145.55609063372916
13.212598272,0.9999965480439793,-147.19012377186394
13.244094464,1.0000235844576102,-148.82488578560552
13.275590656,1.0000504459318407,-150.46039020170406
13.307086848,1.0000767208864456,-152.09664745736174
13.33858304,1.0001017397669816,-153.73360929966893
13.370079232,1.0001250601575888,-155.3713032709842
13.4015744,1.000146219550686,-157.00972058765458
13.433070592,1.0001648723544494,-158.64883729650072
13.464566784,1.000180458706496,-160.2886172246317
13.496062976,1.0001926817339752,-161.9290651862428
13.527559168,1.0002013338930247,-163.57014230315283
13.55905536,1.000206190836959,-165.21181563742203
13.590551552,1.000207075228262,-166.8540733840778
13.622047744,1.00020382728631,-168.49687598120076
13.653542912,1.0001965949587612,-170.14017401476832
13.685039104,1.000185413916021,-171.7839631153214
13.716535296,1.000170386152201,-173.42818958705388
13.748031488,1.0001519627400293,-175.0728343306243
13.77952768,1.0001301705512802,-176.7178691497714
13.811023872,1.0001055346505427,-178.36327926890522
13.842520064,1.0000785712756064,179.99099423268797
13.874016256,1.0000495619591858,178.34493181070553
13.905511424,1.0000192776001742,176.69856538007886
13.937007616,0.9999881671943193,175.0519191769135
13.968503808,0.9999567553271799,173.40497182757878
14.0,0.9999258445936823,171.7577430410453
