freq,mag,phase
6.0,0.9999295881856239,-176.94864311018983
6.027681792,0.9999528649258718,-178.62634995829447
6.055363072,0.9999775798613797,179.69683389541913
6.083044864,1.0000028157378804,178.02085541029047
6.110726656,1.0000282142175978,176.34572669897443
6.138408448,1.0000529801476779,174.67148422270733
6.166089728,1.0000766803867904,172.99812091395725
6.19377152,1.000098630025374,171.325702370378
6.221453312,1.0001186282856511,169.6541905634221
6.249135104,1.000135986033533,167.98361729865164
6.276816384,1.0001503212460927,166.31405447659216
6.304498176,1.0001613955206075,164.64552688061005
6.332179968,1.0001688873841093,162.97805659544187
6.35986176,1.0001727180592954,161.31169517475655
6.38754304,1.0001726581974495,159.64645836134468
6.415224832,1.0001687491723652,157.98238943986146
6.442906624,1.000161159340185,156.31953856202216
6.470588416,1.000149800023323,154.65793835874837
6.498269696,1.000135252047032,152.9976252700454
6.525951488,1.0001176405387209,151.33859994011402
6.55363328,1.000097443307525,149.6809180065771
6.581315072,1.0000749230503034,148.0246242871722
6.608996352,1.000050723980848,146.3696858922055
6.636678144,1.0000254288687167,144.71613204545937
6.664359936,0.9999995688505615,143.06399700812563
6.692041728,0.9999736463682337,141.4132479896929
6.719723008,0.9999483195264719,139.76390762217932
6.7474048,0.9999241445783321,138.11596692158182
6.775086592,0.9999015443031434,136.46939809412186
6.802768384,0.999881284169449,134.82418841179188
6.830449664,0.9998636234422701,133.18029889880475
6.858131456,0.9998491078374016,131.53774355199423
6.885813248,0.9998377975682825,129.89643628683538
6.91349504,0.9998303370537704,128.25641272880247
6.94117632,0.9998267570162717,126.6175712003321
6.968858112,0.9998269873669249,124.9799088620463
6.996539904,0.9998311603052524,123.34336952125345
7.024221696,0.9998392834327675,121.70792702340393
7.051902976,0.9998511127027,120.0735313978833
7.079584768,0.9998662612565391,118.44014121728304
7.10726656,0.9998844215414384,116.8077504802332
7.134948352,0.9999054583486641,115.17630762952122
7.162629632,0.9999286334382195,113.54575512536242
7.190311424,0.9999534231541735,111.9161116434032
7.217993216,0.9999794717600516,110.28734915538428
7.245674496,1.0000061041546822,108.65943244209235
7.273356288,1.0000325445295388,107.0323548817354
7.30103808,1.000058534085894,105.40611501678487
7.328719872,1.00008321171036,103.78070821003593
7.356401152,1.0001060435814495,102.1561568590308
7.384082944,1.0001266486650495,100.5324265390046
7.411764736,1.000144491747782,98.90955271259162
7.439446528,1.0001590380821022,97.2875447864484
7.467127808,1.0001700996139946,95.66641336473155
7.4948096,1.000177333938432,94.04620873626477
7.522491392,1.0001806704097134,92.42692140630915
7.550173184,1.0001799462305816,90.8085930819742
7.577854464,1.0001751043404026,89.19121950920987
7.605536256,1.0001663626962662,87.57483937122468
7.633218048,1.0001538969851425,85.95946804635506
7.66089984,1.0001379770729257,84.3451247020944
7.68858112,1.0001188490796575,82.73183078959067
7.716262912,1.0000970634074695,81.11957902058457
7.743944704,1.0000729881630146,79.50839822216169
7.771626496,1.000047290920633,77.89826760003342
7.799307776,1.0000204467744365,76.28922259395173
7.826989568,0.9999931556758057,74.68121395993656
7.85467136,0.9999660415066425,73.07424307882562
7.882353152,0.9999395676448445,71.46828142634692
7.910034432,0.9999145336345345,69.86331455576956
7.937716224,0.9998913156994217,68.25932148329949
7.965398016,0.999870656683292,66.6562482988248
7.993079808,0.9998527910272136,65.05406548510042
8.020761088,0.9998384341654629,63.452736834644114
8.04844288,0.9998276562844332,61.852194715116
8.076124672,0.999820869901965,60.25239664745304
8.103806464,0.9998181709599828,58.6532994718691
8.131487744,0.9998196217412565,57.05483305986859
8.159169536,0.9998252845402058,55.456969824404716
8.186851328,0.9998349225812431,53.859613116805164
8.21453312,0.9998484489756558,52.26275921073777
8.2422144,0.9998654337260167,50.66634466326084
8.269896192,0.9998856668337278,49.07027436125971
8.297577984,0.9999085433285612,47.4745729274762
8.325259264,0.9999335556005791,45.879158612309894
8.352941056,0.9999603019683827,44.284002204573284
8.380622848,0.9999880456626196,42.68908867306868
8.40830464,1.0000161949645598,41.09437120350881
8.43598592,1.0000440012830325,39.49984395360001
8.463667712,1.000071045431549,37.90548467042296
8.491349504,1.000096562838637,36.31128380575844
8.519031296,1.0001200203470382,34.71723905201844
8.546712576,1.000140759607442,33.123366389002896
8.574394368,1.0001584459127821,31.52962241580349
8.60207616,1.0001725870468874,29.93607237636787
8.629757952,1.000182952790518,28.342703260613558
8.657439744,1.0001891791991557,26.749536060422106
8.685121536,1.000191202003995,25.156568218459327
8.712802304,1.0001887761634334,23.563835249126548
8.740484096,1.0001822101506233,21.97135427240772
8.768165888,1.0001714483860056,20.379119169932743
8.79584768,1.0001569019570393,18.78717580663876
8.823529472,1.0001386738109381,17.19551833429112
8.851211264,1.0001173660626868,15.60417660845139
8.878893056,1.000093339791589,14.013127443258597
8.906574848,1.000067148817995,12.42240387394441
8.934255616,1.000039376208298,10.831961257106897
8.961937408,1.0000107555208833,9.241823997172967
8.9896192,0.9999817556331582,7.65195394748059
9.017300992,0.9999531830442177,6.062360207405805
9.044982784,0.9999256754978206,4.472988109304429
9.072664576,0.9998997754203992,2.8838233585315955
9.100346368,0.9998762920711826,1.2948350882962918
9.12802816,0.9998554522474664,-0.29403477117176485
9.155708928,0.999837967256421,-1.8828408245129074
9.18339072,0.9998241694279077,-3.4716112741988114
9.211072512,0.9998144007818028,-5.060407261149927
9.238754304,0.9998089337494361,-6.649272498132456
9.266436096,0.9998077837358471,-8.238270457067465
9.294117888,0.9998111652001047,-9.82748026245498
9.32179968,0.9998189114636626,-11.416923194455707
9.349481472,0.9998307395449861,-13.006696051065363
9.37716224,0.9998466419551294,-14.596814511115728
9.404844032,0.9998660872417761,-16.187362304780663
9.432525824,0.9998887226761008,-17.77836710534959
9.460207616,0.9999140502446549,-19.36987234044514
9.487889408,0.9999414841192519,-20.961950824041864
9.5155712,0.9999702895537711,-22.554589503655695
9.543252992,0.9999999632762486,-24.147841740349175
9.57093376,1.0000298065263027,-25.741739844702106
9.598615552,1.0000591732332673,-27.33629288854689
9.626297344,1.0000872303924833,-28.931502893575576
9.653979136,1.0001135915546349,-30.527368989900594
9.681660928,1.0001373643158513,-32.12390042602663
9.70934272,1.0001581443177538,-33.72109876288575
9.737024512,1.0001755836694812,-35.318944293260955
9.764706304,1.0001889690317114,-36.91742951794419
9.792387072,1.0001982143151082,-38.516542916265806
9.820068864,1.0002030675494884,-40.11624215486923
9.847750656,1.0002033596413946,-41.716506243570315
9.875432448,1.0001990454277023,-43.317343148421045
9.90311424,1.0001902713906174,-44.91869582210163
9.930796032,1.0001771890477777,-46.52057029695591
9.958477824,1.0001600710678638,-48.12290842675597
9.986159616,1.0001392766853932,-49.72573083272492
10.013840384,1.000115433646003,-51.32899859319552
10.041522176,1.0000889267410547,-52.93274002495835
10.069203968,1.0000602750317942,-54.53687530016474
10.09688576,1.0000303010396718,-56.14146583685955
10.124567552,0.9999995995458517,-57.74652078164233
10.152249344,0.9999687618734024,-59.351998285918974
10.179931136,0.9999386240817071,-60.95794931981972
10.207612928,0.9999098571000428,-62.564406723849125
10.235293696,0.9998830972871983,-64.17137362479127
10.262975488,0.999858956576705,-65.77887941726533
10.29065728,0.9998379695921914,-67.38696871270288
10.318339072,0.9998206031813469,-68.99571517235799
10.346020864,0.9998074069346966,-70.60511612997821
10.373702656,0.9997985910407289,-72.21523443994025
10.401384448,0.999794274827499,-73.82613397335392
10.42906624,0.9997946856663938,-75.43786343660832
10.456747008,0.9997998118587906,-77.05045543071824
10.4844288,0.9998096650360758,-78.6639801174429
10.512110592,0.9998238267989913,-80.27848265063385
10.539792384,0.9998421134498852,-81.89400780046333
10.567474176,0.9998641791859911,-83.51058121350556
10.595155968,0.9998893543630119,-85.12828335031256
10.62283776,0.9999172044296699,-86.74711774884598
10.650518528,0.9999470360778404,-88.36711965953477
10.67820032,0.9999783247383924,-89.98830561214224
10.705882112,1.000010197246619,-91.61070662547358
10.733563904,1.00004207635078,-93.23433089902822
10.761245696,1.0000730969872622,-94.85917723867763
10.788927488,1.0001027917629444,-96.48523601576579
10.81660928,1.0001302132201066,-98.11250917978232
10.844291072,1.0001548698141105,-99.74097577444383
10.87197184,1.0001762414251838,-101.370625549179
10.899653632,1.0001936486382441,-103.00143668141601
10.927335424,1.0002068900711787,-104.63334864217148
10.955017216,1.0002156112727618,-106.26636188913325
10.982699008,1.0002195108957588,-107.90041515949125
11.0103808,1.0002184915056318,-109.53547551911959
11.038062592,1.000212618673226,-111.17151990950383
11.065744384,1.0002020492089492,-112.80849381418878
11.093425152,1.0001868782942536,-114.44637481635074
11.121106944,1.000167475329224,-116.08512424609312
11.148788736,1.0001443049304901,-117.72468380054154
11.176470528,1.0001178138269124,-119.3650576030378
11.20415232,1.0000886196116638,-121.00618791622627
11.231834112,1.0000573336406395,-122.64807113722357
11.259515904,1.0000247355950773,-124.29069880018506
11.287197696,0.9999914726105409,-125.93404383532459
11.314878464,0.9999583130770143,-127.57811629159059
11.342560256,0.9999260065148253,-129.22290131092612
11.370242048,0.9998953004013817,-130.8684312525344
11.39792384,0.9998668295706432,-132.51469919961545
11.425605632,0.9998412519965182,-134.16174144441305
11.453287424,0.999819215518738,-135.80957095769017
11.480969216,0.9998011942480003,-137.4582035825051
11.508651008,0.9997876624932415,-139.10768928593
11.536331776,0.9997787976880501,-140.7580623763459
11.564013568,0.9997750808043485,-142.40936292266625
11.59169536,0.9997763419443813,-144.06159336531024
11.619377152,0.9997826378660452,-145.71483562024517
11.647058944,0.9997940399554572,-147.369119576372
11.674740736,0.9998099775331293,-149.02445258198307
11.702422528,0.9998304822175949,-150.68090712648896
11.730103296,0.999854840289675,-152.3384771086956
11.757785088,0.9998827418679099,-153.99718989985132
11.78546688,0.9999132767527747,-155.65708892549
11.813148672,0.9999461407769296,-157.31815666683337
11.840830464,0.9999802669912405,-158.98043082553568
11.868512256,1.0000151813015348,-160.64388189960127
11.896194048,1.0000499002406928,-162.3085271181807
11.92387584,1.0000838362019657,-163.97433618136046
11.951556608,1.0001160287746265,-165.64129978009876
11.9792384,1.000145898395622,-167.3093590605372
12.006920192,1.0001726531013364,-168.9785163092993
12.034601984,1.0001957230477603,-170.6487338444768
12.062283776,1.000214586104649,-172.31993063063663
12.089965568,1.0002288048945263,-173.99208955521775
12.11764736,1.0002380595160336,-175.66511847538706
12.145329152,1.0002420599761108,-177.3390019142145
12.17300992,1.0002408349228444,-179.0136559302375
12.200691712,1.000234094418149,179.31096563305337
12.228373504,1.0002222282895614,177.6349365041185
12.256055296,1.0002053338229275,175.95831386549025
12.283737088,1.0001838310452857,174.28115198929927
12.31141888,1.0001581813278388,172.6034995046631
12.339100672,1.0001287809771195,170.9254228447618
12.366782464,1.000096526369032,169.24695124144864
12.394463232,1.0000619709916603,167.56811998618528
12.422145024,1.0000258296261797,165.88897782125747
12.449826816,0.9999890173234872,164.209562629403
12.477508608,0.9999522675926,162.5298660722402
12.5051904,0.9999163889496195,160.84993672800235
12.532872192,0.9998822836563699,159.16975191489328
12.560553984,0.999850699799925,157.4893338342379
12.588235776,0.9998222611987978,155.80866481044106
12.615916544,0.9997976530312648,154.12774879292968
12.643598336,0.9997775326002385,152.4465578483984
12.671280128,0.9997621839133828,150.7650703120649
12.69896192,0.999752251960014,149.08327031255607
12.726643712,0.999747829285766,147.40113713388575
12.754325504,0.9997490690295577,145.71863392310215
12.782007296,0.9997559488924547,144.0357484171092
12.809689088,0.999768426872082,142.35242000673193
12.837369856,0.9997861829822476,140.6686642500625
12.865051648,0.9998087892782379,138.98442183883932
12.89273344,0.9998359466879099,137.29969197719794
12.920415232,0.999866935405316,135.6144641785634
12.948097024,0.9999012688110401,133.92870933660885
12.975778816,0.9999379604308997,132.24244596404426
13.003460608,0.9999763528042306,130.555653863532
13.031141376,1.0000156418346744,128.86837445374988
13.058823168,1.0000548059519914,127.18059905707004
13.08650496,1.000093020790344,125.49235728885616
13.114186752,1.0001296125831944,123.80368851816051
13.141868544,1.0001634274172502,122.11464178576354
13.169550336,1.0001939583278563,120.42523823393014
13.197232128,1.000220376570584,118.73554167347326
13.22491392,1.0002421305527598,117.04563247306166
13.252594688,1.0002586632097645,115.35554424649773
13.28027648,1.0002695336152525,113.6653607482671
13.307958272,1.0002746076017037,111.97513716061655
13.335640064,1.0002735246820276,110.28497938588019
13.363321856,1.0002663980252922,108.59493954419933
13.391003648,1.0002533682458334,106.90508953013372
13.41868544,1.0002345651460824,105.21549982151068
13.446367232,1.0002104649678971,103.52626724090582
13.474048,1.0001815901510902,101.83742316514099
13.501729792,1.0001484224089046,100.14904731261215
13.529411584,1.0001117407421833,98.4611899495051
13.557093376,1.0000723797615336,96.7738954486665
13.584775168,1.0000311529635684,95.08721791380698
13.61245696,0.9999889383581753,93.40120652766063
13.640138752,0.9999467280790044,91.71584964900657
13.667820544,0.9999054363636461,90.03118893095355
13.695501312,0.9998659945939538,88.34723523521569
13.723183104,0.9998293493884985,86.66400029853543
13.750864896,0.9997962540418578,84.98144388608785
13.778546688,0.9997675327601667,83.29959027869481
13.80622848,0.9997438165434389,81.61840723706996
13.833910272,0.9997256925576503,79.93786593224053
13.861592064,0.9997135677368988,78.25792832352718
13.889273856,0.9997078673109048,76.57859455381868
13.916954624,0.9997088169233841,74.89979932088373
13.944636416,0.999716175444756,73.22153057361723
13.972318208,0.9997300935048872,71.54370996907339
14.0,0.999750235760826,69.86633092677882
