freq,mag,phase
6.0,1.0000010428709685,1.0721917704039488
6.041451008,1.0000012341123585,-0.18631661329203097
6.082901504,1.000001507516061,-1.4452711966890528
6.124352512,1.0000018316274386,-2.704627737640592
6.165803008,1.0000019489382224,-3.964454182885155
6.207254016,1.0000021107641024,-5.224695155950794
6.248704512,1.000002290272004,-6.4853767444033386
6.29015552,1.0000024819398472,-7.746490374339354
6.331606016,1.0000026420866042,-9.0080391577998
6.373057024,1.0000027766400033,-10.270058788450404
6.41450752,1.0000029071549188,-11.532504748821056
6.455958528,1.0000029591700526,-12.795371129318292
6.497409536,1.000003084781148,-14.058691500720467
6.538860032,1.0000030572741732,-15.322472536424714
6.58031104,1.0000029822563279,-16.586639638984693
6.621761536,1.0000029340048529,-17.851310229247094
6.663212544,1.0000028939782213,-19.116398595685695
6.70466304,1.000002834267926,-20.381964832229347
6.746114048,1.0000026543461777,-21.6479701160151
6.787564544,1.0000024057010055,-22.914395115140394
6.829015552,1.0000022941915168,-24.18128429469685
6.87046656,1.000002095310884,-25.448627582858105
6.911917056,1.0000018791263214,-26.71643473805436
6.953368064,1.0000016050294713,-27.98470012766333
6.99481856,1.00000126818261,-29.253407307025366
7.036269568,1.000001071280506,-30.52256751319101
7.077720064,1.000000806462072,-31.792175435068547
7.119171072,1.000000338097111,-33.062288167244425
7.160621568,1.0000002409177597,-34.33280757237456
7.202072576,0.9999998749969674,-35.60378609932182
7.243523072,0.9999995752161815,-36.87525388247419
7.28497408,0.999999444588536,-38.14717780460876
7.326425088,0.999999071748971,-39.41953235272466
7.367875584,0.9999989246655252,-40.692378594812695
7.409326592,0.9999987122936997,-41.96566153717903
7.450777088,0.9999984341135338,-43.23943718548186
7.492228096,0.9999984162915183,-44.51363565035936
7.533678592,0.9999983665007387,-45.78830607937352
7.5751296,0.9999983136899654,-47.06347093424285
7.616580096,0.9999982070281421,-48.33911539735822
7.658031104,0.9999983059896391,-49.61515651385545
7.699482112,0.9999983393120462,-50.89170728012137
7.740932608,0.9999983631523912,-52.16875435978253
7.782383616,0.9999984344119036,-53.44620833952731
7.823834112,0.9999984340440018,-54.724165866820854
7.86528512,0.9999987708036263,-56.00260584343095
7.906735616,0.9999989040751806,-57.28147852052355
7.948186624,0.9999991515509634,-58.56084443925502
7.98963712,0.9999993605668837,-59.840639289716385
8.031088128,0.999999598737986,-61.120961997817226
8.072538624,0.9999999945359268,-62.40171912894186
8.113989632,1.0000002397088765,-63.68295484217011
8.15544064,1.0000005355043187,-64.96464849601891
8.196891136,1.0000008463333632,-66.24681708814308
8.238342144,1.0000012485334144,-67.52946923980154
8.27979264,1.0000014304548106,-68.8125715748232
8.321243648,1.0000017173728712,-70.09614660049778
8.362694144,1.000001985594758,-71.38017119139823
8.404145152,1.000002271826951,-72.66469196728376
8.445595648,1.0000025278010167,-73.9496646772589
8.487046656,1.0000027606643171,-75.23511322106431
8.528497664,1.0000029914372788,-76.5210235649554
8.56994816,1.0000031529558828,-77.80739907194734
8.611398656,1.0000033075970889,-79.09424182651502
8.652850176,1.0000033327775997,-80.38153376432096
8.694300672,1.0000033388141234,-81.66929405367266
8.735751168,1.000003498094047,-82.95752208865545
8.777201664,1.000003406580221,-84.24619685916791
8.818653184,1.0000034087933942,-85.53533185519933
8.86010368,1.0000032605916083,-86.82493667401289
8.901554176,1.0000031372929297,-88.11501948199086
8.943004672,1.0000029822356997,-89.40552863416538
8.984456192,1.0000028349217183,-90.6964883943587
9.025906688,1.0000025015101888,-91.98789948078192
9.067357184,1.000002322514582,-93.279778877812
9.108808704,1.0000020256301896,-94.57208439840362
9.1502592,1.0000017619528132,-95.8648593711237
9.191709696,1.0000014217203739,-97.15806101058229
9.233160192,1.0000010991477617,-98.45171379321043
9.274611712,1.0000007746347943,-99.74583871421355
9.316062208,1.0000003844871095,-101.0403872833138
9.357512704,1.0000001697249061,-102.33536928592564
9.398964224,0.9999997496763673,-103.63080749104344
9.44041472,0.999999407892331,-104.92669386493289
9.481865216,0.9999992417738451,-106.22298929895437
9.523315712,0.999998914442311,-107.5197379840492
9.564767232,0.9999986512321061,-108.81689188125448
9.606217728,0.9999984155601556,-110.11451505962341
9.647668224,0.9999982133460721,-111.41255353883214
9.68911872,0.9999980973024272,-112.71101823759679
9.73057024,0.9999979117154179,-114.00992642983286
9.772020736,0.9999978804160617,-115.3092607573849
9.813471232,0.9999978298595511,-116.60900019189776
9.854922752,0.9999978671979932,-117.90916710157059
9.896373248,0.9999978674130305,-119.20976381790184
9.937823744,0.9999979349713323,-120.51076890101038
9.97927424,0.9999980747672724,-121.81221964273148
10.02072576,0.9999982513846948,-123.11406343842789
10.062176256,0.9999984446519578,-124.41632266809384
10.103626752,0.9999987011084068,-125.71899266954063
10.145077248,0.9999989963880251,-127.02205751664437
10.186528768,0.9999992596319961,-128.325570680762
10.227979264,0.9999996433799815,-129.6294445191565
10.26942976,1.0000000061254042,-130.93374090758394
10.31088128,1.0000003557734398,-132.23844772808332
10.352331776,1.000000716111152,-133.54353837962952
10.393782272,1.0000010945543116,-134.8490195804074
10.435232768,1.000001500890903,-136.15491892293394
10.476684288,1.0000018786517881,-137.46119535584606
10.518134784,1.0000023135723086,-138.76785677881392
10.55958528,1.0000026283415986,-140.07488103384316
10.601035776,1.0000030124695247,-141.38231012769296
10.642487296,1.0000032830106034,-142.6901150803794
10.683937792,1.0000036383336575,-143.99829044324844
10.725388288,1.0000038578647028,-145.3068551637975
10.766839808,1.0000040387491587,-146.61578271615733
10.808290304,1.000004273566241,-147.92507121414155
10.8497408,1.000004380473008,-149.2347201375956
10.891191296,1.0000044539676003,-150.54474558350537
10.932642816,1.0000045852453268,-151.85510272462892
10.974093312,1.0000045153850332,-153.16582456165992
11.015543808,1.0000044130654442,-154.47688540021488
11.056995328,1.000004317397347,-155.78829527299612
11.098445824,1.0000041842999965,-157.10004218546288
11.13989632,1.0000039671647691,-158.41214848327914
11.181346816,1.0000037428960216,-159.72458245220278
11.222798336,1.0000035048527838,-161.0373366662927
11.264248832,1.0000031629585795,-162.35042531661168
11.305699328,1.0000028487651362,-163.66380867513828
11.347149824,1.0000024637286868,-164.9775435151885
11.388601344,1.0000019470789014,-166.29159339425027
11.43005184,1.0000015644975537,-167.60594286344144
11.471502336,1.0000011677258267,-168.92059207628327
11.512953856,1.0000006625248452,-170.23553475287332
11.554404352,1.0000001988076244,-171.55081791241068
11.595854848,0.9999997566910321,-172.8663648561081
11.637305344,0.9999993577230829,-174.1822235955729
11.678756864,0.9999988874597103,-175.49835347839817
11.72020736,0.9999985478533686,-176.8147758187122
11.761657856,0.9999982562782618,-178.1314794701343
11.803108352,0.9999979335089915,-179.44845299343476
11.844559872,0.9999975651697478,179.2342991318375
11.886010368,0.9999973472092525,177.9167640801317
11.927460864,0.9999971016725697,176.59898249095573
11.968912384,0.9999969863204934,175.280936263657
12.01036288,0.9999968720760849,173.96262652926922
12.051813376,0.9999968338260873,172.6440772646716
12.093263872,0.9999968508823713,171.32527302531068
12.134715392,0.9999969356018511,170.00622135116754
12.176165888,0.9999969678959437,168.68691749051234
12.217616384,0.9999972205156585,167.36738757261386
12.25906688,0.9999973931143943,166.04761620181424
12.3005184,0.9999977617618308,164.72760503575427
12.341968896,0.9999980299794473,163.4073872727497
12.383419392,0.9999984376311953,162.0869498904145
12.424870912,0.9999988267686618,160.76628152449015
12.466321408,0.9999992549824412,159.44540251875705
12.507771904,0.999999753668304,158.12431840407967
12.5492224,1.0000002907255796,156.80302044870072
12.59067392,1.0000007530252735,155.48154076859572
12.632124416,1.0000012558995621,154.15985860589728
12.673574912,1.0000018612631825,152.83797553272987
12.715025408,1.00000228043121,151.5159133192282
12.756476928,1.000002810110007,150.19366924720313
12.797927424,1.0000031914199907,148.8712472438484
12.83937792,1.0000037089904195,147.54866265910096
12.88082944,1.0000041913552882,146.2258822196644
12.922279936,1.0000044911014634,144.9029746127438
12.963730432,1.0000047903670415,143.57989258380778
13.005180928,1.0000051133639072,142.25666869829632
13.046632448,1.0000053561064173,140.93330878780324
13.088082944,1.0000054942523138,139.6097812814082
13.12953344,1.0000055951334983,138.28612481873014
13.17098496,1.0000055769546625,136.9623549297339
13.212435456,1.0000055042159353,135.63844418226947
13.253885952,1.0000054426278793,134.3144176927218
13.295336448,1.0000051910992553,132.99027323102638
13.336787968,1.0000050006604284,131.66603301451832
13.378238464,1.0000046876804638,130.34168013878568
13.41968896,1.0000043167804387,129.0172205707089
13.461139456,1.0000038334039956,127.69269487233967
13.502590976,1.000003284873555,126.36806795155005
13.544041472,1.0000028908157943,125.04335465539127
13.585491968,1.000002214172408,123.71857085603475
13.626943488,1.0000016423084648,122.39370400447133
13.668393984,1.0000010421964363,121.06879127312067
13.70984448,1.0000003795079975,119.74380241272901
13.751294976,0.9999997550232045,118.41877419538878
13.792746496,0.9999989947243161,117.09368328427259
13.834196992,0.9999983580982444,115.76855398353473
13.875647488,0.9999976902765517,114.44338329064355
13.917097984,0.999997052514151,113.11818964088769
13.958549504,0.9999964561348768,111.79295537416598
14.0,0.9999959299587459,110.46769448017798
