freq,mag,phase
6.0,0.9992978795455287,154.04470313270997
6.002287104,0.9990619297511136,153.90378213006545
6.004574208,0.9988862111859649,153.76590901989778
6.006861312,0.9987812454492949,153.63011644470126
6.009147904,0.9987540682196675,153.4953561100573
6.011435008,0.9988063771440424,153.3604280208487
6.013722112,0.9989346402444454,153.22421164952937
6.016009216,0.9991307698370816,153.0857138189644
6.01829632,0.9993826211084808,152.94397761741442
6.020583424,0.9996738964249646,152.7982996818187
6.022870016,0.9999864609655325,152.64832165506306
6.02515712,1.0003003862236564,152.4938078918917
6.027444224,1.000595739126488,152.33491525312525
6.029731328,1.0008540693161747,152.17202723778502
6.032018432,1.0010588688603401,152.00584343064585
6.034305536,1.0011971694978086,151.83717861976004
6.036592128,1.0012602234090748,151.6671410131471
6.038879232,1.0012443600758025,151.49678703705814
6.041166336,1.001150127569533,151.32725291751885
6.04345344,1.000983498077674,151.1596459727817
6.045740544,1.000755299372413,150.99493403826577
6.048027648,1.0004796119883004,150.83392268112328
6.05031424,1.0001739089220003,150.67715097877203
6.052601344,0.9998574841556456,150.52494221319404
6.054888448,0.9995502349755861,150.37731158358085
6.057175552,0.9992719809668574,150.23397207921093
6.059462656,0.9990400348912222,150.09439677602631
6.06174976,0.9988693051559295,149.95777655654942
6.064036352,0.9987706323612003,149.82319412704297
6.066323456,0.9987501492345656,149.68948256585077
6.06861056,0.9988093989851355,149.55554640468927
6.070897664,0.9989446107767391,149.4202399975825
6.073184768,0.9991469811826433,149.28253291554495
6.075471872,0.9994039341775928,149.1415109134514
6.077758464,0.9996993486532446,148.9964694273589
6.080045568,1.0000139611579375,148.847073383079
6.082332672,1.000328478502223,148.69314511502174
6.084619776,1.0006225499026582,148.53480848527232
6.08690688,1.0008778870137862,148.3725672341478
6.089193984,1.0010782176676027,148.20705448905258
6.091481088,1.0012107882469614,148.03913731353174
6.09376768,1.001267382682655,147.86991032490278
6.096054784,1.0012442184939774,147.70049284877925
6.098341888,1.0011430064831304,147.5319754859263
6.100628992,1.0009698800040985,147.3655157818623
6.102916096,1.0007358552307073,147.20201109805424
6.1052032,1.0004554887105805,147.04227811424084
6.107489792,1.0001466596652275,146.88687109891833
6.109776896,0.9998289662319952,146.73603709897768
6.112064,0.9995222065382198,146.58979892882633
6.114351104,0.9992461110250069,146.4477901440451
6.116638208,0.999018012006139,146.30955986763567
6.118925312,0.9988525919857545,146.17419392122247
6.121211904,0.9987601005854864,146.04077192304126
6.123499008,0.9987466714124018,145.90816649515114
6.125786112,0.9988131253866793,145.7752121128165
6.128073216,0.9989552450738965,145.64077086055494
6.13036032,0.9991639016397597,145.5038095674324
6.132647424,0.9994262059737988,145.36348046261793
6.134934016,0.9997252747114286,145.21908128870996
6.13722112,1.0000422614475135,145.07025911362106
6.139508224,1.0003569368841687,144.9168712337135
6.141795328,1.0006496375041427,144.75913465234814
6.144082432,1.0009017530237236,144.59747271338176
6.146369536,1.0010973113343251,144.43259476470857
6.148656128,1.001224065219875,144.26545751598002
6.150943232,1.0012738713307072,144.09701734966495
6.153230336,1.0012435255999907,143.92850998941847
6.15551744,1.0011350870581637,143.76104937116457
6.157804544,1.0009551925062259,143.59570021521628
6.160091648,1.0007152950976224,143.4334197341859
6.162378752,1.0004304090238278,143.2749897393485
6.164665344,1.0001186738021333,143.12090864450835
6.166952448,0.9997995912145021,142.97145902204713
6.169239552,0.9994935652167323,142.8266164898625
6.171526656,0.9992199162804682,142.68600638290516
6.17381376,0.9989958998951558,142.54907063657637
6.176100864,0.9988358321609629,142.4149651108743
6.178387456,0.998750060738382,142.2826821674224
6.18067456,0.998743758864137,142.15114486845943
6.182961664,0.9988175604024826,142.01911940123347
6.185248768,0.9989666783147152,141.8855455844204
6.187535872,0.9991818799551503,141.74932264213314
6.189822976,0.9994494007205789,141.6096552628399
6.192109568,0.999752137322095,141.46586702502455
6.194396672,1.0000711087139573,141.31757032463713
6.196683776,1.0003861931316138,141.1647487446536
6.19897088,1.0006772171568554,141.00756321291883
6.201257984,1.0009259122612788,140.84647489008375
6.203545088,1.0011165360174477,140.68223438072832
6.20583168,1.0012370340522383,140.51579158451514
6.208118784,1.0012798085342611,140.34820964608426
6.210405888,1.0012421331196568,140.18063306191019
6.212692992,1.001126448982131,140.01417001594214
6.214980096,1.0009396738590273,139.84996641488678
6.2172672,1.0006938292320764,139.68888302629495
6.219553792,1.0004045848888456,139.53176578838483
6.221840896,1.000089853077971,139.3790504651641
6.224128,0.9997698247239619,139.23097189216142
6.226415104,0.9994644924187612,139.08750225308734
6.228702208,0.9991934264505414,138.94825384417655
6.230989312,0.9989737973028289,138.81260160715487
6.233275904,0.9988194412071485,138.67974973361888
6.235563008,0.9987403084016857,138.54862224138418
6.237850112,0.9987413686483663,138.41809952654805
6.240137216,0.9988227943660805,138.28702490455328
6.24242432,0.9989792126897704,138.15425070564137
6.244711424,0.999200695943233,138.0187461306219
6.246998528,0.9994733515964145,137.8797089237187
6.24928512,0.9997798595451559,137.7364955279548
6.251572224,1.0001008152923174,137.58874984528512
6.253859328,1.0004157838994012,137.43642196216462
6.256146432,1.0007050332004552,137.27974977332917
6.258433536,1.0009500770543625,137.11923036668475
6.26072064,1.001135519949802,136.95564769486492
6.263007232,1.0012497300215093,136.78990917692525
6.265294336,1.0012852613314014,136.62313027426762
6.26758144,1.0012399794934455,136.45645834625523
6.269868544,1.0011166518603754,136.29102788273758
6.272155648,1.0009231494251243,136.1279242906271
6.274442752,1.000671472652605,135.96811012914574
6.276729344,1.0003777480307743,135.81225492874592
6.279016448,1.0000602308097228,135.6608890476609
6.281303552,0.9997391467321683,135.51420660614986
6.283590656,0.9994349644331911,135.37209285713413
6.28587776,0.9991668671760575,135.23418617586898
6.288164864,0.9989516636576637,135.09983988016378
6.290451456,0.9988034193667469,134.96817300659592
6.29273856,0.9987311736192379,134.83817669437525
6.295025664,0.9987399745505404,134.70866800585878
6.297312768,0.9988289455081528,134.57849032991356
6.299599872,0.9989926691515543,134.44652323308267
6.301886976,0.9992207103310861,134.31173063033253
6.304173568,0.999498416366403,134.17328894945453
6.306460672,0.9998086039664008,134.0306025538983
6.308747776,1.0001313294840186,133.88335894288238
6.31103488,1.0004461098972748,133.73151874040175
6.313321984,1.000733190401253,133.5753592518724
6.315609088,1.0009743939194546,133.41538586724954
6.317896192,1.00115445278019,133.25240725918644
6.320182784,1.0012619444258235,133.08737996790725
6.322469888,1.0012900942623675,132.92140390132283
6.324756992,1.0012370520941845,132.75563103989722
6.327044096,1.0011062349942057,132.59124238152248
6.3293312,1.0009056204480966,132.42927276630707
6.331618304,1.0006481339838766,132.27065723433645
6.333904896,1.0003499894665988,132.11609739233
6.336192,1.000029784358555,131.96606301137066
6.338479104,0.9997079259284157,131.8207522013941
6.340766208,0.9994049688265754,131.68000584302476
6.343053312,0.9991399472818964,131.543440606597
6.345340416,0.9989295336130986,131.41036854070452
6.347627008,0.9987874248470261,131.27990125004547
6.349914112,0.9987226651751528,131.15100176935132
6.352201216,0.9987390026686622,131.02247441108912
6.35448832,0.9988359371540759,130.89316023666265
6.356775424,0.9990071633735936,130.76195766790877
6.359062528,0.999241534040006,130.62782120938797
6.36134912,0.9995245624291025,130.4899544321792
6.363636224,0.9998381612916665,130.34778209518632
6.365923328,1.0001624361452592,130.2010234627484
6.368210432,1.0004769476266107,130.04962601167517
6.370497536,1.0007618098104978,129.8939488616554
6.37278464,1.0009989147014222,129.7345167814323
6.375071232,1.001173241974761,129.57214693130163
6.377358336,1.001273874888128,129.40778020102778
6.37964544,1.0012943035711899,129.242578930547
6.381932544,1.0012334169798085,129.07772413847107
6.384219648,1.0010948119436975,128.9143561649814
6.386506752,1.000887176369154,128.75349685251646
6.388793344,1.000623849593268,128.5961022108401
6.391080448,1.000321298935825,128.44284474206617
6.393367552,0.999998578653156,128.29414761463514
6.395654656,0.9996762200550618,128.15019943257303
6.39794176,0.999374598689402,128.01079124644508
6.400228864,0.9991128333446524,127.87556704160643
6.402515968,0.9989076538997201,127.74374048686775
6.40480256,0.9987719426397962,127.6144540697975
6.407089664,0.9987145091723761,127.48661873514091
6.409376768,0.9987390333224869,127.3590715501423
6.411663872,0.9988438300483525,127.2306054459129
6.413950976,0.9990223596118776,127.10012928585056
6.41623808,0.9992633981997309,126.96658877056052
6.418524672,0.99955157126527,126.82927805094718
6.420811776,0.9998685192698864,126.68758791342768
6.42309888,1.000194348967758,126.54125959222274
6.425385984,1.0005083079096273,126.3903252698241
6.427673088,1.0007906279090526,126.23509357188594
6.429960192,1.001023310658403,126.07616407900777
6.432246784,1.0011917929254592,125.91433875421227
6.434533888,1.0012852167298565,125.75067393331928
6.436820992,1.001297878635463,125.58625359474337
6.439108096,1.0012288461195127,125.42230576093858
6.4413952,1.0010824093822823,125.25991611491598
6.443682304,1.0008678077900608,125.10019165610927
6.445968896,1.0005986308385946,124.94398967830548
6.448256,1.0002917486218226,124.79202470551085
6.450543104,0.999966683913324,124.64466471814872
6.452830208,0.9996439455896289,124.50206319728112
6.455117312,0.9993439264028222,124.36401339699142
6.457404416,0.999085777594135,124.23007638137454
6.459691008,0.9988859364770728,124.09948112915738
6.461978112,0.9987570009490213,123.97136990109577
6.464265216,0.9987071492798473,123.8445426391185
6.46655232,0.9987397750775678,123.71792310888017
6.468839424,0.998852692249171,123.59028631514731
6.471126528,0.9990387291406557,123.46047218744394
6.473413632,0.999286344528502,123.3275804296127
6.475700224,0.9995795516121969,123.19074023103784
6.477987328,0.9998997608653558,123.0495071154183
6.480274432,1.0002269738238438,122.90356446729169
6.482561536,1.0005402513874628,122.75302393404786
6.48484864,1.0008196696227365,122.59821422696048
6.487135744,1.001047730574591,122.43978100778149
6.489422336,1.0012099359069224,122.27854312481074
6.49170944,1.0012961076685125,122.11553011710902
6.493996544,1.001300670530622,121.95190148166712
6.496283648,1.001223307758852,121.78878220536504
6.498570752,1.0010689580745284,121.6274166697462
6.500857856,1.000847345239658,121.46880550814744
6.503144448,1.0005722898182547,121.31381608343482
6.505431552,1.0002611943678783,121.16311324310536
6.507718656,0.9999338215100112,121.01708600148815
6.51000576,0.9996109436966422,120.87582519193361
6.512292864,0.9993128614025263,120.73908023957314
6.514579968,0.9990585871163835,120.60642650732144
6.51686656,0.9988642566642297,120.47709204638329
6.519153664,0.9987423237892694,120.35005947533762
6.521440768,0.9987003842218766,120.22429029193957
6.523727872,0.9987413794334186,120.09856534707079
6.526014976,0.9988626150593871,119.97167617280695
6.52830208,0.9990563852038243,119.8425259171899
6.530588672,0.9993103035726372,119.71016848074068
6.532875776,0.9996085669122523,119.57382463970089
6.53516288,0.9999320002714611,119.43299078813081
6.537449984,1.000260333507327,119.28744296863393
6.539737088,1.000572491786252,119.1372705048957
6.542024192,1.0008489727781147,118.98286647558224
6.544310784,1.0010722337751612,118.8248838731182
6.546597888,1.001227928404758,118.66417411498668
6.548884992,1.001306470775642,118.50180309139641
6.551172096,1.001302833615674,118.33891832788528
6.5534592,1.001217096501674,118.17669923160626
6.555746304,1.0010546766262984,118.01632988064621
6.558033408,1.0008257906266274,117.85881418618304
6.56032,1.0005450003344698,117.70502042297981
6.562607104,1.0002298258336708,117.55558674680739
6.564894208,0.9999004498091778,117.41087573103444
6.567181312,0.9995775248827008,117.27093243710162
6.569468416,0.9992815600928235,117.13552648704794
6.57175552,0.9990313867346727,117.00411462916219
6.574042112,0.9988429347699599,116.87595055446714
6.576329216,0.9987282107419486,116.75003837405922
6.57861632,0.9986944612682422,116.62523573704892
6.580903424,0.998743887142158,116.5003615184007
6.583190528,0.9988734611364642,116.37421796242648
6.585477632,0.999074868477958,116.24571209518676
6.587764224,0.999335423558734,116.11386861803746
6.590051328,0.9996384881142968,115.97794050312186
6.592338432,0.9999650614559368,115.837457386207
6.594625536,1.000294148264031,115.69224916675518
6.59691264,1.0006052358735011,115.54246253825248
6.599199744,1.000878385193656,115.3884364420761
6.601486336,1.0010964443391146,115.23087230326227
6.60377344,1.0012454482781301,115.07068656489217
6.606060544,1.0013161817425364,114.90893800516395
6.608347648,1.001304070141981,114.74678310718649
6.610634752,1.0012097206731305,114.58542078722567
6.612921856,1.0010392724946273,114.4260358160585
6.615208448,1.0008032384117436,114.2696228191624
6.617495552,1.0005165606377473,114.11702374234491
6.619782656,1.0001975794311688,113.96882597161267
6.62206976,0.99986619817155,113.82542160139249
6.624356864,0.9995434389493437,113.68678117728919
6.626643968,0.9992499041689452,113.55267445128999
6.628931072,0.9990041919441686,113.4225397219498
6.631217664,0.9988217928447343,113.29552509153162
6.633504768,0.9987144920423089,113.17065995121641
6.635791872,0.9986891691968374,113.04682861239993
6.638078976,0.9987472637565405,112.92278880780472
6.64036608,0.9988852783737978,112.79736718980944
6.642653184,0.9990944906823129,112.66941003756176
6.644939776,0.9993614640545226,112.53802009323309
6.64722688,0.9996693683922914,112.40250086161981
6.649513984,0.9999987901388061,112.26236352714601
6.651801088,1.0003286957049256,112.11748327666153
6.654088192,1.0006382516929764,111.96796444499942
6.656375296,1.0009078458635985,111.81430213205266
6.658661888,1.0011204284015685,111.65714542886741
6.660948992,1.0012625016206116,111.49747715772729
6.663236096,1.0013251453435519,111.33632067440783
6.6655232,1.001304342492861,111.17491756925041
6.667810304,1.0012013089042484,111.01440980558539
6.670097408,1.0010225634791412,110.85599546476186
6.672384,1.0007794823354241,110.700655216032
6.674671104,1.0004871734255047,110.54921835925627
6.676958208,1.0001643197460914,110.40229518065799
6.679245312,0.9998311565413129,110.2601627072463
6.681532416,0.9995089428459594,110.12282821123742
6.68381952,0.9992180352535779,109.98999537540422
6.686106112,0.9989768996773105,109.86105678625684
6.688393216,0.998801029474433,109.7351932146172
6.69068032,0.9987014093597074,109.61138346243239
6.692967424,0.9986845806284459,109.48844820039761
6.695254528,0.998751588216626,109.36520193516075
6.697541632,0.9988981419688252,109.24041471325967
6.699828224,0.9991151584216998,109.1130017776548
6.702115328,0.9993885992696756,108.98208160633858
6.704402432,0.999701315234881,108.84689620163213
6.706689536,1.00003340845352,108.70705356515344
6.70897664,1.0003638069112415,108.56241900188407
6.711263744,1.000671708458452,108.41320841853926
6.713550848,1.000937429967133,108.25985445120934
6.71583744,1.001144274341422,108.10309050223935
6.718124544,1.0012791572006352,107.94388910303097
6.720411648,1.001333544147616,107.78334248251193
6.722698752,1.0013038080728474,107.6226363996826
6.724985856,1.001192050440087,107.46299330692759
6.72727296,1.0010050415196174,107.30553061523119
6.729559552,1.0007547996691264,107.15128587474776
6.731846656,1.0004568210690543,107.0010011295166
6.73413376,1.000130320596783,106.85529718120706
6.736420864,0.9997956417081084,106.71443555861084
6.738707968,0.9994740676943403,106.57838496961621
6.740995072,0.9991861375022837,106.44679483297749
6.743281664,0.9989498986964988,106.31906475755369
6.745568768,0.998780572403779,106.19431629462724
6.747855872,0.9986890070580963,106.07150605526782
6.750142976,0.9986809412045166,105.94945709057878
6.75243008,0.9987569149034787,105.82693467472167
6.754717184,0.9989121724228132,105.70277366278717
6.757003776,0.999136925529715,105.57585570906126
6.75929088,0.9994168113102136,105.44531739084503
6.761577984,0.9997340883869034,105.31045678518188
6.763865088,1.0000687438307996,105.17086517856018
6.766152192,1.0003994110651457,105.02648704582062
6.768439296,1.0007053504278014,104.87751560524032
6.770725888,1.0009670165899103,104.72444775970132
6.773012992,1.001167898084474,104.5680447868355
6.775300096,1.0012952653351836,104.40929742324177
6.7775872,1.0013410862426255,104.24933111432645
6.779874304,1.0013023317204999,104.0893210718102
6.782161408,1.0011816905085338,103.93049569440703
6.784448512,1.0009863665099323,103.77399295230109
6.786735104,1.0007289110589306,103.62079390516331
6.789022208,1.0004254509336241,103.47168800610235
6.791309312,1.0000952672147874,103.32721966183189
6.793596416,0.9997593418799132,103.18761791497742
6.79588352,0.9994386731479861,103.0528152403364
6.798170624,0.9991539389005532,102.92245309562146
6.800457216,0.9989229080160685,102.79587627509339
6.80274432,0.9987605668245602,102.67221153702708
6.805031424,0.9986772265085198,102.55037267462392
6.807318528,0.9986780843668358,102.42915758282442
6.809605632,0.9987633281070017,102.30734896164024
6.811892736,0.998927371816331,102.18375144634278
6.814179328,0.9991598020379986,102.05731187546435
6.816466432,0.9994461071902999,101.92710495839093
6.818753536,0.9997679514680881,101.79251029219697
6.82104064,1.0001048872809688,101.65315842314753
6.823327744,1.0004356844699904,101.50897306888955
6.825614848,1.000739186380198,101.36020548447826
6.82790144,1.00099661001837,101.20739998527448
6.830188544,1.0011911412800294,101.05135144096701
6.832475648,1.0013108276409601,100.89303028671557
6.834762752,1.0013478991668618,100.73359852582189
6.837049856,1.0013000507092735,100.57428412364216
6.83933696,1.0011702494796464,100.41629460204004
6.841623552,1.000966655548691,100.26073736523045
6.843910656,1.000702077000673,100.10857578905065
6.84619776,1.000393236737816,99.96061658243637
6.848484864,1.0000597365222765,99.81735419425212
6.850771968,0.9997224776580862,99.67898370324353
6.853059072,0.9994030721628777,99.54542313349698
6.855345664,0.999121841633539,99.41626882141053
6.857632768,0.9988964606059912,99.29082558565092
6.859919872,0.9987413284034357,99.1682065943325
6.862206976,0.9986663386948744,99.04729069968647
6.86449408,0.9986764111520775,98.92688816229581
6.866781184,0.9987707730882178,98.805737142363
6.869068288,0.998943661299763,98.68266900949756
6.87135488,0.9991839435767091,98.55662736767259
6.873641984,0.9994765510931547,98.42673483180536
6.875929088,0.9998026290938552,98.29235957156887
6.878216192,1.0001418566128617,98.15318914304822
6.880503296,1.0004723429247722,98.00916207291301
6.8827904,1.0007735165793314,97.86056258964031
6.885076992,1.0010260282104144,97.7080133332282
6.887364096,1.0012141132420063,97.55226049343406
6.8896512,1.001325702692006,97.39437463160709
6.891938304,1.0013538577993606,97.23549170544858
6.894225408,1.0012966233566545,97.07684372458253
6.896512512,1.0011576376787814,96.91963866951377
6.898799104,1.0009455812307493,96.76499846800654
6.901086208,1.0006739950403287,96.61388989304898
6.903373312,1.0003599040633573,96.46707627688488
6.905660416,1.0000231212736723,96.32497841333446
6.90794752,0.9996850566425993,96.18785726174549
6.910234624,0.9993671131582686,96.05550854132174
6.912521216,0.9990895301017837,95.92752917630813
6.91480832,0.9988699412912265,95.8031917039647
6.917095424,0.9987223565046858,95.68158237262857
6.919382528,0.9986561064763229,95.56156102242309
6.921669632,0.9986755030160701,95.44189341301785
6.923956736,0.9987793964526167,95.32141035087017
