freq,mag,phase
6.0,0.9998748306697698,-64.1599838761328
6.01136384,0.9998717006175699,-64.63631164674938
6.022727168,0.9998745126681688,-65.11261157458111
6.034091008,0.9998834131868108,-65.58912022682993
6.045454336,0.9998978582192293,-66.06580995673573
6.056818176,0.9999174600195809,-66.54272559514128
6.068182016,0.9999407406877105,-67.01999329265269
6.079545344,0.9999669607874522,-67.4976229983176
6.090909184,0.9999948832444556,-67.97566066857536
6.102272512,1.0000228488526244,-68.45411714826636
6.113636352,1.0000498689220163,-68.93297379734648
6.125000192,1.000074608571944,-69.41215769409693
6.13636352,1.000095561883764,-69.89176699341274
6.14772736,1.0001122107873595,-70.37161021104627
6.159090688,1.0001233285083477,-70.85169861113137
6.170454528,1.0001285056975828,-71.33195001212286
6.181818368,1.000127604165293,-71.81223717689605
6.193181696,1.000120248890391,-72.29258452954055
6.204545536,1.0001075686491614,-72.7728328952214
6.215908864,1.000089555728615,-73.25297072708035
6.227272704,1.000067242599059,-73.73284044109758
6.238636544,1.000041466453068,-74.21250268023215
6.249999872,1.0000139712936298,-74.69185841395978
6.261363712,0.9999856426400089,-75.17095034629739
6.27272704,0.9999578630225465,-75.6496985679221
6.28409088,0.9999323950990221,-76.12820506406479
6.29545472,0.9999099503589765,-76.60642155562472
6.306818048,0.9998917854375484,-77.08447496723144
6.318181888,0.9998787145368447,-77.56230571442822
6.329545216,0.9998717387773524,-78.04010495769872
6.340909056,0.9998705959386599,-78.51791691153078
6.352272896,0.9998758034274933,-78.99577817238823
6.363636224,0.9998870475612324,-79.47383688659556
6.375000064,0.9999036299588261,-79.95204105371047
6.386363392,0.9999249440379013,-80.43058548167168
6.397727232,0.9999496680274003,-80.90948650721923
6.409091072,0.9999769889242837,-81.38873294815633
6.4204544,1.00000537803262,-81.86838113665291
6.43181824,1.0000334175234333,-82.34845578043702
6.443181568,1.0000601011573864,-82.82891122194982
6.454545408,1.000083799253231,-83.30969996081188
6.465909248,1.0001036243849084,-83.79084318784255
6.477272576,1.0001182579525254,-84.27227178285939
6.488636416,1.0001276374281127,-84.75385333254216
6.499999744,1.0001304293286353,-85.23557210817016
6.511363584,1.000127275546372,-85.71735466202938
6.522727424,1.0001179232930024,-86.19908125464812
6.534090752,1.0001029112597468,-86.6807176587094
6.545454592,1.0000829068515826,-87.16218565697135
6.556818432,1.0000588754608848,-87.64341487304895
6.56818176,1.0000321166310386,-88.12439394166894
6.5795456,1.0000037133055724,-88.60502566451868
6.590908928,0.9999751187348056,-89.0853666770099
6.602272768,0.9999478265039993,-89.56537270137058
6.613636608,0.9999228839010333,-90.04514082423442
6.624999936,0.9999017245850629,-90.52461864243787
6.636363776,0.9998851479071923,-91.00393447054758
6.647727104,0.9998741008979496,-91.48311958537323
6.659090944,0.9998691953653734,-91.96221585166512
6.670454784,0.9998703897611089,-92.44131870523702
6.681818112,0.999877912663196,-92.92056594292262
6.693181952,0.9998913295013219,-93.39995586120764
6.70454528,0.9999098936825834,-93.8796304863755
6.71590912,0.9999329593299454,-94.35956859115812
6.72727296,0.99995911678689,-94.83985076917205
6.738636288,0.9999872206356882,-95.32054830741099
6.750000128,1.0000161027290828,-95.8016665278853
6.761363456,1.0000442309228625,-96.28314890742045
6.772727296,1.0000702089714117,-96.7649967773592
6.784091136,1.0000928627416372,-97.24723505278729
6.795454464,1.0001110948944636,-97.72974194198639
6.806818304,1.0001241410138417,-98.21251317942334
6.818181632,1.0001311421283852,-98.6954237938352
6.829545472,1.000131792183015,-99.17844679565106
6.840909312,1.000126290480309,-99.66146930588843
6.85227264,1.000114528176138,-100.14441955401746
6.86363648,1.00009744773064,-100.62722891917765
6.874999808,1.0000757506980205,-101.1098238840587
6.886363648,1.0000502422219448,-101.5921895847912
6.897727488,1.0000224082491587,-102.0742512086485
6.909090816,0.9999934480306578,-102.55593311679618
6.920454656,0.9999648929015109,-103.03737300705768
6.931817984,0.9999379453171802,-103.51844846119202
6.943181824,0.9999138656754167,-103.9992773643291
6.954545664,0.9998939580904463,-104.47982012187455
6.965908992,0.999879186159399,-104.96019223989046
6.977272832,0.999870201034266,-105.44045474540896
6.98863616,0.9998674000257267,-105.9206844586851
7.0,0.9998710495686803,-106.40094784506168
7.01136384,0.9998808083249315,-106.88137736390517
7.022727168,0.999896370818368,-107.36193863851737
7.034091008,0.9999168908490299,-107.84280664676727
7.045454336,0.9999414697167185,-108.32393604847479
7.056818176,0.9999689745426006,-108.80547136868252
7.068182016,0.9999978790516245,-109.28739886343695
7.079545344,1.0000268944903492,-109.76971729900164
7.090909184,1.0000548685031543,-110.25241055808478
7.102272512,1.000080090738401,-110.73546942266915
7.113636352,1.0001015270705669,-111.21888570123009
7.125000192,1.0001181571763982,-111.70257379984355
7.13636352,1.000129149310119,-112.18646667809085
7.14772736,1.000133992154929,-112.67050507274892
7.159090688,1.0001325163821575,-113.1545694128901
7.170454528,1.0001245957744025,-113.63859900461311
7.181818368,1.0001106979306476,-114.12257319257505
7.193181696,1.0000916108932196,-114.60632438385714
7.204545536,1.000068055509104,-115.08983321850748
7.215908864,1.0000411781664702,-115.57310830766797
7.227272704,1.000012422983113,-116.05602779835846
7.238636544,0.9999830346353382,-116.53861356744873
7.249999872,0.9999544696976828,-117.02082527453098
7.261363712,0.9999281072825712,-117.50277701764054
7.27272704,0.9999050973659497,-117.98446131462529
7.28409088,0.999886768838584,-118.46582368563439
7.29545472,0.9998737887125411,-118.94710201078361
7.306818048,0.9998668631421759,-119.42823784049313
7.318181888,0.9998663297691354,-119.90934382208358
7.329545216,0.9998723717684485,-120.39055108738081
7.340909056,0.9998844322479401,-120.87187901382705
7.352272896,0.9999020792258146,-121.35341804211659
7.363636224,0.9999244965806805,-121.835238765586
7.375000064,0.9999506019244273,-122.31739215715278
7.386363392,0.9999790784789165,-122.79992072951501
7.397727232,1.000008667135164,-123.28284789754589
7.409091072,1.0000378694565393,-123.76613527948376
7.4204544,1.0000653070150696,-124.24983274034986
7.43181824,1.0000897004188738,-124.73391521304787
7.443181568,1.0001098015816823,-125.21825790525659
7.454545408,1.000124669745525,-125.70285727505853
7.465909248,1.000133654629806,-126.18764842029908
7.477272576,1.0001362414897035,-126.67253031203181
7.488636416,1.000132385378377,-127.15740970523349
7.500000256,1.0001221468486319,-127.64225074329958
7.511363584,1.0001061140371015,-128.1269142939874
7.522727424,1.0000850062057782,-128.61140728298318
7.534090752,1.000059770225415,-129.09558359778785
7.545454592,1.0000317420697502,-129.57948946903238
7.556818432,1.000002130653718,-130.06304163368839
7.56818176,0.9999724824183631,-130.54623848402298
7.5795456,0.999944139615464,-131.02909869508875
7.590908928,0.9999184898120432,-131.5116407571751
7.602272768,0.9998966964087892,-131.99385546520122
7.613636608,0.9998799116668786,-132.47589804323033
7.624999936,0.9998689661751465,-132.95776584479248
7.636363776,0.9998642984325541,-133.43956025771092
7.647727104,0.9998660667458062,-133.92138137953694
7.659090944,0.9998743765007955,-134.40323469815263
7.670454784,0.9998886966721314,-134.88527275884866
7.681818112,0.9999084864248552,-135.36753322366505
7.693181952,0.9999326925217653,-135.85011569985707
7.70454528,0.999960198287928,-136.33303509442624
7.71590912,0.9999896428932691,-136.81631389059945
7.72727296,1.0000197091232634,-137.29996518126222
7.738636288,1.000048884258276,-137.78406817562023
7.750000128,1.0000757930273345,-138.26850410654657
7.761363456,1.0000991173982907,-138.75327275994073
7.772727296,1.0001177046752647,-139.23831295832326
7.784091136,1.0001306987781031,-139.72359582383265
7.795454464,1.0001375550222222,-140.20901251879533
7.806818304,1.000137874865909,-140.69448327352526
7.818181632,1.0001316057315928,-141.17991697127232
7.829545472,1.000119021332304,-141.66528810741838
7.840909312,1.0001008210263895,-142.15046520360758
7.85227264,1.0000777192875356,-142.6353584852879
7.86363648,1.0000510252431802,-143.11998599409452
7.874999808,1.000021882422273,-143.60426688147135
7.886363648,0.9999916278941733,-144.08819150829228
7.897727488,0.9999618361561311,-144.57174508793122
7.909090816,0.9999338677660566,-145.05495581243687
7.920454656,0.9999090149284208,-145.53783765801674
7.931817984,0.9998887015107465,-146.02045220716724
7.943181824,0.9998737075597929,-146.50288575898418
7.954545664,0.9998647404343438,-146.98512075821105
7.965908992,0.9998623540964822,-147.46730324493888
7.977272832,0.999866554925892,-147.94950710255742
7.98863616,0.9998771916365093,-148.4318312392091
8.0,0.9998938528423795,-148.91435196289504
8.01136384,0.9999156220849532,-149.3970921321296
8.022727168,0.9999415496181367,-149.88014209684522
8.034091008,0.9999703208811339,-150.36355306752017
8.045454336,1.0000005600012756,-150.84733893675127
8.056818176,1.0000310237428516,-151.331545719752
8.068182016,1.000059882296181,-151.81610642303883
8.079545344,1.000086051389997,-152.30102591124495
8.090909184,1.0001081972737804,-152.78627908551664
8.102272512,1.0001251695174507,-153.2717596555474
8.113636352,1.000136273396854,-153.75741855370865
8.125000192,1.000140902008119,-154.2432248837163
8.13636352,1.000138786896366,-154.7290248295664
8.14772736,1.0001301640309226,-155.2147450910239
8.159090688,1.0001152232418986,-155.70037762417397
8.170454528,1.0000948846275004,-156.1857498773893
8.181818368,1.0000699831661086,-156.67084801228063
8.193181696,1.0000417515989408,-157.15564420147578
8.204545536,1.000011610910263,-157.64003370769177
8.215908864,0.9999809427537986,-158.1240880680311
8.227272704,0.9999511489004344,-158.60774722871898
8.238636544,0.9999237429522434,-159.09102109105265
8.249999872,0.9999000507811027,-159.5739944410241
8.261363712,0.9998811023691783,-160.0567131707115
8.27272704,0.9998679709823413,-160.53921783903635
8.28409088,0.999861176214985,-161.02160052430543
8.29545472,0.9998611290295687,-161.5039473369154
8.306818048,0.9998678074849356,-161.98633995676073
8.318181888,0.999880831691879,-162.4688312781785
8.329545216,0.999899725022799,-162.95155668078212
8.340909056,0.9999234686530528,-163.4345082922487
8.352272896,0.9999509325624399,-163.91782431504018
8.363636224,0.9999808748048609,-164.4014684057166
8.375000064,1.0000119156542417,-164.88550939176451
8.386363392,1.0000423614405145,-165.3699607098001
8.397727232,1.0000710015427767,-165.8547722194639
8.409091072,1.0000962429197189,-166.3399204783978
8.4204544,1.0001170223581137,-166.82537075725216
8.43181824,1.000132207808024,-167.31102351703782
8.443181568,1.000141237565898,-167.79683924831542
8.454545408,1.0001434200974464,-168.28270610549467
8.465909248,1.0001390203174207,-168.7685845893688
8.477272576,1.0001278381636445,-169.2543274791234
8.488636416,1.00011064396865,-169.73993001522348
8.499999744,1.000088213972116,-170.2252595754536
8.511363584,1.0000615198027019,-170.71027371600115
8.522727424,1.0000319850286847,-171.1949495659806
8.534090752,1.0000009542923318,-171.67921340998336
8.545454592,0.9999698673355628,-172.1630786955216
8.556818432,0.9999403242775735,-172.64656568579863
8.56818176,0.9999136226992775,-173.12969569622604
8.5795456,0.9998910959709864,-173.6125038802511
8.59090944,0.9998739081605371,-174.09505933815984
8.602272768,0.9998627307644834,-174.57742333416445
8.613636096,0.9998581872522262,-175.05966989930312
8.625000448,0.9998606487413655,-175.54191157878014
8.636363776,0.9998696716720736,-176.02419629548535
8.647727104,0.9998851398106584,-176.50668251624495
8.659090432,0.9999062617947844,-176.98932310958946
8.670454784,0.9999319195613865,-177.47230300243285
8.681818112,0.9999608969234474,-177.95556325581302
8.69318144,0.9999919632549654,-178.43924968517302
8.704545792,1.0000235037353755,-178.92329808546995
8.71590912,1.0000539084338667,-179.40772018180223
8.727272448,1.000081869013574,-179.89249664470714
8.7386368,1.0001062395458424,179.622387072888
8.750000128,1.0001254777082949,179.1370354664558
8.761363456,1.0001387195532032,178.65147424816712
8.772726784,1.0001454738961504,178.16576724203776
8.784091136,1.0001454452175427,177.68005809655668
8.795454464,1.0001383973310134,177.19438156876387
8.806817792,1.0001248599608208,176.70887257628726
8.818182144,1.000105311952797,176.22358293555465
8.829545472,1.0000807856981668,175.7385697034526
8.8409088,1.0000524825073014,175.2539118831021
8.852273152,1.0000216823793944,174.76964532826403
8.86363648,0.9999898472072021,174.2857569616472
8.874999808,0.9999587304428773,173.80230506991558
8.886363136,0.9999294507966688,173.3192314428004
8.897727488,0.9999036279820354,172.83653911893342
8.909090816,0.999882541132762,172.3541461239511
8.920454144,0.9998670039352758,171.87200861447232
8.931818496,0.9998580410702939,171.39003598205423
8.943181824,0.9998559836941691,170.90814671812313
8.954545152,0.9998607879213071,170.42623864300433
8.965909504,0.9998724513152257,169.94427354717018
8.977272832,0.9998902803900136,169.46213354442153
8.98863616,0.9999136007389194,168.9797493286404
8.999999488,0.9999410764940148,168.4970760562948
9.01136384,0.9999714457704881,168.01403627277014
9.022727168,1.0000034003865954,167.53063629482006
9.034090496,1.0000353419589638,167.04684360514327
9.045454848,1.0000657261764245,166.56265720509214
9.056818176,1.0000929430655545,166.07817231776608
9.068181504,1.0001160387170893,165.5933345130157
9.079545856,1.0001335193870076,165.10828899054223
9.090909184,1.0001447565700563,164.623081386554
9.102272512,1.0001491863834753,164.13778601366502
9.113636864,1.0001465307343531,163.65249500984228
9.125000192,1.0001370454147445,163.1673048997732
9.13636352,1.000120975666623,162.6822796900998
9.147726848,1.0000991715970073,162.19753532518737
9.1590912,1.0000727045576523,161.71310519143847
9.170454528,1.0000428409399618,161.22906166768033
9.181817856,1.0000109652865923,160.7454107377955
9.193182208,0.9999784650386568,160.26219959941446
9.204545536,0.9999472545266984,159.77940096385908
9.215908864,0.999918479868518,159.2970128971147
9.227273216,0.9998938042100628,158.8149778079265
9.238636544,0.9998741900376974,158.33324506811906
9.249999872,0.9998607356602117,157.85177782030502
9.2613632,0.9998540059648253,157.37040428950644
9.272727552,0.9998544226377639,156.88914297357954
9.28409088,0.9998617663692807,156.40786518657194
9.295454208,0.9998759098939708,155.92643113761434
9.30681856,0.9998962612296081,155.44483487641511
9.318181888,0.9999216472213378,154.9629631840219
9.329545216,0.999950855002281,154.48079230626828
9.340909568,0.9999826477835528,153.99824565624695
9.352272896,1.0000154061995656,153.51532360339556
9.363636224,1.00004753325094,153.03202781655503
9.374999552,1.0000774954332228,152.54834913206582
9.386363904,1.000103881423275,152.06433499077417
9.397727232,1.000125576242787,151.5800595517873
9.40909056,1.000141326774697,151.0955684492392
9.420454912,1.0001503523183848,150.6109367592003
9.43181824,1.0001522772682179,150.12627461703744
9.443181568,1.000147063396042,149.64167147478446
9.45454592,1.000134784165641,149.15718679314622
9.465909248,1.000116344163826,148.6729226752862
9.477272576,1.000092247670978,148.18898127626426
9.488635904,1.0000638254733596,147.70535278121275
9.500000256,1.000032422878992,147.22214848685425
9.511363584,0.9999995489864655,146.7393932886871
9.522726912,0.9999667751290318,146.25707729678416
9.534091264,0.9999356549558226,145.77520141331775
9.545454592,0.9999075935385148,145.29369757001376
9.55681792,0.9998840608858608,144.81258117868563
9.568182272,0.9998662494069295,144.33173361108965
9.5795456,0.9998548757579128,143.85112174992324
9.590908928,0.9998505248733399,143.37063953787853
9.602272256,0.9998534586980677,142.8901998162592
9.613636608,0.9998636103248784,142.40969932472885
9.624999936,0.9998804467011635,141.92906755832362
9.636363264,0.9999029899050663,141.4482239614479
9.647727616,0.9999304837037247,140.96708986212474
9.659090944,0.9999613869842724,140.48562116377775
9.670454272,0.9999943866880957,140.0037939052348
9.681818624,1.0000277084949982,139.5215763293073
9.693181952,1.000059976911785,139.03897028515493
9.70454528,1.0000894268172487,138.5560100271502
9.715908608,1.0001147819588103,138.0727343026857
9.72727296,1.0001348482158672,137.58921276541727
9.738636288,1.0001484650421153,137.1055075890072
9.749999616,1.000155162251459,136.62171360877855
9.761363968,1.000154528245229,136.13791242811178
9.772727296,1.0001466436960946,135.6541868508613
9.784090624,1.000131829147763,135.17065598670126
9.795454976,1.0001107560316171,134.68735762541155
9.806818304,1.0000845085100627,134.20441581177232
9.818181632,1.0000542042912348,133.72187964197727
9.82954496,1.00002142327333,133.23973617519624
9.840909312,0.9999875893242469,132.75808167925652
9.85227264,0.9999545166512271,132.2768763435296
9.863635968,0.9999237215133048,131.79610481280903
9.87500032,0.999896556213969,131.31575421299547
9.886363648,0.999874453874315,130.8357203272026
9.897726976,0.9998584847262569,130.35598956366573
9.909091328,0.9998494322527952,129.87646656279188
9.920454656,0.999847641435958,129.39702328228526
9.931817984,0.9998533032721081,128.91760877870257
9.943181312,0.9998661193435048,128.43811318796776
9.954545664,0.9998856300293012,127.95847075847713
9.965908992,0.9999106286419276,127.47856749690854
9.97727232,0.9999400835684679,126.99836355049061
9.988636672,0.9999726294711845,126.51778954049433
10.0,1.0000066368752458,126.03688308109314
10.011363328,1.0000405195377964,125.555537155322
10.02272768,1.00007256947548,125.07384077397836
10.034091008,1.0001014127309769,124.59179762363053
10.045454336,1.0001255085125789,124.10945599785971
10.056818688,1.000143727124514,123.62690558055576
10.068182016,1.000155252158024,123.14417898502023
10.079545344,1.0001594748499962,122.6614039900151
10.090908672,1.0001561053814236,122.17866033061395
10.102273024,1.000145459616586,121.69605594235342
10.113636352,1.0001278805530553,121.21365601040804
10.12499968,1.0001042240617373,120.73156697636355
10.136364032,1.0000756874488315,120.24983581683755
10.14772736,1.0000437139084843,119.76854011421467
10.159090688,1.0000095869526184,119.2876796422334
10.17045504,0.9999750772413388,118.80731533677714
10.181818368,0.9999419212160775,118.32742613575746
10.193181696,0.9999114786456161,117.84796750981089
10.204545024,0.9998854697060096,117.36892037433982
10.215909376,0.9998650280108097,116.8901944588751
10.227272704,0.9998511744383022,116.4117522142191
10.238636032,0.9998444757079509,115.93345552305493
10.250000384,0.9998454920538521,115.45526057979701
10.261363712,0.9998539242041057,114.97704843206488
10.27272704,0.9998695536425669,114.49874243893039
10.284091392,0.9998916290056904,114.02021668546304
10.29545472,0.9999190465118349,113.54144194630658
10.306818048,0.9999505119678875,113.06234170326044
10.318181376,0.9999845277969149,112.5828741701938
10.329545728,1.0000195723206229,112.10297903954805
10.340909056,1.0000536944466831,111.62273014884501
10.352272384,1.000085531056965,111.14212106397932
10.363636736,1.0001134316683156,110.66113780383493
10.375000064,1.0001360435438467,110.17992781774869
10.386363392,1.0001523160699228,109.69848619636922
10.397727744,1.0001614897673836,109.2169374084159
10.409091072,1.0001629751544407,108.73536159771812
10.4204544,1.0001567580224462,108.25385995443632
10.431817728,1.000143217543811,107.77253769727147
10.44318208,1.0001229055730825,107.29145355314262
10.454545408,1.0000967385729895,106.8107209819568
10.465908736,1.0000660592411938,106.33039530926993
10.477273088,1.0000322850709946,105.8505327305889
10.488636416,0.9999970482052385,105.3711422905841
10.499999744,0.9999620078462289,104.89221810509446
10.511364096,0.9999288333404649,104.41380156595312
10.522727424,0.9998991434027682,103.93581899252717
10.534090752,0.9998744280513121,103.45824795774531
10.54545408,0.9998557974401797,102.98098744447425
