freq,mag,phase
6.0,0.9999319031991414,31.40772729649333
6.01086976,0.9999545653765406,31.138064246045555
6.021739008,0.9999793100899504,30.868080116310868
6.032608768,1.0000047237202438,30.597793536812077
6.043478016,1.0000298698233352,30.32715393089723
6.054347776,1.000053339446226,30.05617717481155
6.065217536,1.0000739554161022,29.7849425717797
6.076086784,1.0000906918220447,29.513414404201068
6.086956544,1.0001027144162604,29.241728072026422
6.097826304,1.0001094587846955,28.96990261681262
6.108695552,1.0001105788389462,28.698036949718777
6.119565312,1.0001058880875635,28.42617115743328
6.13043456,1.0000956813748774,28.154405436793212
6.14130432,1.0000805259782026,27.882807823187132
6.15217408,1.0000611027357937,27.611417821861032
6.163043328,1.0000383905224945,27.34024338948829
6.173913088,1.000013502985977,27.06941416544929
6.184782848,0.9999876717047296,26.798897576374184
6.195652096,0.9999622043785042,26.528708251286886
6.206521856,0.9999383534149051,26.25882560296839
6.217391104,0.9999173266834523,25.98921666044837
6.228260864,0.9999002113298796,25.719842042352816
6.239130624,0.9998877253918286,25.450689115249542
6.249999872,0.9998806934896759,25.18159797925723
6.260869632,0.9998793289413348,24.91256289126636
6.27173888,0.9998837974684752,24.6435721356249
6.28260864,0.999893834698235,24.374385475122477
6.2934784,0.999908980764057,24.105128659717124
6.304347648,0.9999284625243519,23.835612694879362
6.315217408,0.9999512817693924,23.56577232301377
6.326087168,0.9999763791246843,23.295651064279927
6.336956416,1.0000025054520438,23.025206466136638
6.347826176,1.0000282322786116,22.754377121132578
6.358695424,1.0000524723795792,22.483260584882743
6.369565184,1.000073827470587,22.21185086694417
6.380434944,1.0000912881030506,21.94014067931781
6.391304192,1.000104040080959,21.6682604853747
6.402173952,1.0001113593939002,21.396237765906083
6.413043712,1.0001128808072872,21.124134945144096
6.42391296,1.0001085672775496,20.852028307633052
6.43478272,1.0000986589811105,20.580040437072334
6.445651968,1.000083431197311,20.308197876283565
6.456521728,1.0000638985116217,20.036575441216826
6.467391488,1.000040827791869,19.765213725902676
6.478260736,1.000015463680527,19.494131530063566
6.489130496,0.9999891180815476,19.223423509246317
6.499999744,0.9999629662114675,18.953000074666935
6.510869504,0.9999384200350758,18.68290412585046
6.521739264,0.9999166040371933,18.413122338450556
6.532608512,0.9998986673250283,18.143624285489388
6.543478272,0.9998855531262986,17.874264579910644
6.554348032,0.9998778697442047,17.60503304938247
6.56521728,0.9998760460871764,17.335875158784468
6.57608704,0.9998801573117053,17.066679081590067
6.586956288,0.9998899806855659,16.79739953183538
6.597826048,0.9999050775287459,16.527934350030154
6.608695808,0.9999247401705919,16.258267794098707
6.619565056,0.9999479546238574,15.988333392930432
6.630434816,0.9999735092799853,15.718044049863922
6.641304576,1.0000001745190932,15.447404201875269
6.652173824,1.0000266637117619,15.176444310597123
6.663043584,1.0000515998230053,14.905136306017493
6.673912832,1.0000736777057164,14.633518461986325
6.684782592,1.0000920030724774,14.361639862271584
6.695652352,1.0001054188512124,14.089548577038732
6.7065216,1.000113416275883,13.817289031258854
6.71739136,1.0001154993069266,13.544955592327002
6.72826112,1.00011149102442,13.272653091050357
6.739130368,1.000101756848304,13.000417170802196
6.750000128,1.00008663971877,12.72834351267479
6.760869376,1.000066868704336,12.456431079643513
6.771739136,1.0000435394857947,12.184874245539458
6.782608896,1.0000176738959656,11.913568555474209
6.793478144,0.9999906596940967,11.642604666581493
6.804347904,0.9999638085040957,11.37199257011953
6.815217152,0.9999383333716093,11.10171607556475
6.826086912,0.9999158029819034,10.831719991233037
6.836956672,0.9998970967743364,10.561975784745824
6.84782592,0.9998833006531743,10.292479887650156
6.85869568,0.9998749856165634,10.023062600565547
6.86956544,0.9998725885907727,9.75373348825482
6.880434688,0.9998763958437802,9.484389733917254
6.891304448,0.9998859906976008,9.214988464663843
6.902173696,0.9999012287707084,8.945404513577872
6.913043456,0.9999209797243489,8.675556963376089
6.923913216,0.9999444672274329,8.405443756820267
6.934782464,0.9999705785742734,8.1349991830265
6.945652224,0.9999978809999298,7.864214172554789
6.956521984,1.0000251003563572,7.593067401182471
6.967391232,1.0000508050756813,7.321570038328626
6.978260992,1.0000737806490216,7.049722767381499
6.98913024,1.0000928159866551,6.777642648822812
7.0,1.0001070831230072,6.505326172376212
7.01086976,1.0001157698829175,6.232871410847471
7.021739008,1.000118320088929,5.960304250134791
7.032608768,1.0001147113990245,5.687721479738716
7.043478016,1.0001051980351916,5.415226306586932
7.054347776,1.0000899398206409,5.1428848016896405
7.065217536,1.000070050147737,4.8707764512931035
7.076086784,1.0000462833118233,4.598916275748776
7.086956544,1.0000199788049156,4.327405778703882
7.097826304,0.9999923165385375,4.056198684932509
7.108695552,0.999964740700284,3.785362904206569
7.119565312,0.9999385290046091,3.5148341586824485
7.13043456,0.999915076689166,3.2446474196249397
7.14130432,0.9998955136203055,2.9747570236598513
7.15217408,0.9998809154983991,2.705034765596451
7.163043328,0.9998719671128867,2.435493570248565
7.173913088,0.9998690657334363,2.1659887958000104
7.184782848,0.9998724295232019,1.8964997117647187
7.195652096,0.999881875026886,1.6269030262168078
7.206521856,0.9998969231572373,1.357126646592473
7.217391104,0.9999170182530294,1.0871541148164268
7.228260864,0.999940928894001,0.8168647896357341
7.239130624,0.9999674808652822,0.5462398407689879
7.249999872,0.9999954504346963,0.275303251589129
7.260869632,1.0000236058159666,0.003950151915756025
7.27173888,1.0000500209009195,-0.267758664202024
7.28260864,1.0000740646986246,-0.5397896594132566
7.2934784,1.0000938959745729,-0.8120844987445899
7.304347648,1.0001088629373844,-1.0846388084097265
7.315217408,1.000118225356563,-1.3573851763922247
7.326087168,1.000121370907138,-1.6302017158722137
7.336956416,1.0001181923912572,-1.9029847293747555
7.347826176,1.00010874355558,-2.1757474740341207
7.358695424,1.0000935464199556,-2.448327156904182
7.369565184,1.0000734938009126,-2.7207145832280224
7.380434944,1.0000493914982924,-2.992808969525592
7.391304192,1.0000224997556404,-3.264639994098926
7.402173952,0.9999941155593293,-3.5360403622274865
7.413043712,0.9999657495078091,-3.807125022585678
7.42391296,0.9999385735263974,-4.077849127317495
7.43478272,0.9999142390226082,-4.348269044084855
7.445651968,0.9998938056724526,-4.618388381699696
7.456521728,0.9998784618726742,-4.8882950718500044
7.467391488,0.9998687616684848,-5.158034579119917
7.478260736,0.9998653192016154,-5.427714974719156
7.489130496,0.9998682975820217,-5.697370483678036
7.500000256,0.9998775451812983,-5.967119090535193
7.510869504,0.9998926940572361,-6.237039298737169
7.521739264,0.999912910968999,-6.5072041968846905
7.532608512,0.9999372356011006,-6.77764367144825
7.543478272,0.9999644243850566,-7.048447528333661
7.554348032,0.9999931723303819,-7.319585806988445
7.56521728,1.0000220158289752,-7.591121154628644
7.57608704,1.0000494994659468,-7.863037790563751
7.586956288,1.0000742623368406,-8.135265132767962
7.597826048,1.0000951331377854,-8.40781691083287
7.608695808,1.0001108710863627,-8.680635417027146
7.619565056,1.0001209616645865,-8.953606632310349
7.630434816,1.0001246249123639,-9.226665096627363
7.641304576,1.0001219276036812,-9.49975433860844
7.652173824,1.0001126591712273,-9.772792648071094
7.663043584,1.0000974638665676,-10.045651436771927
7.673912832,1.0000771634508152,-10.318309290778414
7.684782592,1.0000525542274386,-10.590701493445486
7.695652352,1.0000251427261246,-10.862745672110334
7.7065216,0.9999960668723733,-11.134435567098192
7.71739136,0.9999667886882629,-11.40575288219416
7.72826112,0.9999388065752066,-11.676723382177958
7.739130368,0.9999135038703668,-11.947354325072318
7.750000128,0.9998921040455236,-12.217689258749093
7.760869376,0.9998758639483853,-12.487791117035842
7.771739136,0.9998654184113682,-12.757728908044403
7.782608896,0.9998614462809753,-13.027561007857999
7.793478144,0.9998640394047437,-13.297405898675958
7.804347904,0.9998731032168685,-13.567342902449669
7.815217152,0.9998883513800539,-13.837414943837665
7.826086912,0.9999087805887419,-14.107764715398034
7.836956672,0.9999334188242593,-14.37838109122539
7.84782592,0.9999612164009721,-14.64935927688668
7.85869568,0.9999907562661313,-14.920709830924118
7.86956544,1.0000204826082868,-15.19244091508102
7.880434688,1.0000489018675984,-15.4645747724751
7.891304448,1.000074664036982,-15.737049746264407
7.902173696,1.0000964315184857,-16.009837144714865
7.913043456,1.0001131329107629,-16.282890937938124
7.923913216,1.000123999451898,-16.556119924787716
7.934782464,1.0001283066151576,-16.82947172616113
7.945652224,1.0001259115316605,-17.10285562435111
7.956521984,1.000116858348529,-17.37617537261743
7.967391232,1.0001017825131016,-17.64932329208692
7.978260992,1.0000811878487572,-17.922251960932364
7.98913024,1.0000561265385655,-18.194913511230265
8.0,1.0000280199130545,-18.467249696184012
8.01086976,0.9999981081163539,-18.739194783148413
8.021739008,0.9999679268925312,-19.010776496397874
8.032608768,0.9999389755326211,-19.281992793523063
8.043478016,0.9999126072935424,-19.552857403425154
8.054347776,0.9998904333234688,-19.82340271939752
8.065217536,0.9998732568266271,-20.093700149704492
8.076086784,0.9998620083264698,-20.363836210705394
8.086956544,0.999857413357866,-20.633899602255173
8.097826304,0.9998595707265143,-20.90390848857121
8.108695552,0.9998684032645083,-21.174024153480236
8.119565312,0.9998835337408134,-21.444300309669096
8.13043456,0.9999043153877881,-21.714786616370542
8.14130432,0.9999295462973908,-21.985598236441948
8.15217408,0.9999580376396308,-22.25674890722485
8.163043328,0.9999882664678185,-22.52832275002922
8.173913088,1.0000188722578955,-22.800265263803926
8.184782848,1.000048457141942,-23.072616757851993
8.195652096,1.000075272290969,-23.345327691389823
8.206521856,1.0000980382106712,-23.618388633458917
8.217391104,1.0001156796611779,-23.891683623762518
8.228260864,1.0001272588811994,-24.165220646060313
8.239130624,1.000132197540646,-24.43884753022124
8.249999872,1.0001302630404525,-24.712511309487898
8.260869632,1.0001215247195325,-24.986101744429106
8.27173888,1.0001062243934749,-25.259582120745115
8.28260864,1.0000854514446123,-25.53280483481129
8.2934784,1.000059874426532,-25.805781152459506
8.304347648,1.0000311701089775,-26.07839071044457
8.315217408,1.0000003541677063,-26.350616517938622
8.326087168,0.9999692493625677,-26.62247244830898
8.336956416,0.9999391453672765,-26.893932331169793
8.347826176,0.9999117745398327,-27.165033955809523
8.358695424,0.9998884836354119,-27.43582117056992
8.369565184,0.9998702729367424,-27.70633368178715
8.380434944,0.9998583746049597,-27.976684640937314
8.391304192,0.9998531633635601,-28.246904822007224
8.402173952,0.9998548021916188,-28.517144224797818
8.413043712,0.9998634917557833,-28.787416627122074
8.42391296,0.9998788183439693,-29.057868621090357
8.43478272,0.9998996854000795,-29.328586556257694
8.445651968,0.9999254589416219,-29.599549589994655
8.456521728,0.9999545519042229,-29.8709243178393
8.467391488,0.9999858017215699,-30.14269104041359
8.478260736,1.000017507027895,-30.414867103828048
8.489130496,1.0000480685274031,-30.687420828731913
8.499999744,1.0000759476455285,-30.960415459228898
8.510869504,1.0000999066307958,-31.23371853373152
8.521739264,1.0001183548418533,-31.507313983759083
8.532608512,1.0001308172461822,-31.781135665377718
8.543478272,1.0001364537111095,-32.05507387001438
8.554348032,1.0001349701739066,-32.32904717459802
8.56521728,1.000126289146996,-32.60293308947243
8.57608704,1.000111072797696,-32.87672256369121
8.586956288,1.0000899989853542,-33.15028268937463
8.59782656,1.0000639585047715,-33.42355184281829
8.608695296,1.0000344484662724,-33.69643517638597
8.619565056,1.0000027481184675,-33.96899154341111
8.630434816,0.9999705226422262,-34.24110290556625
8.641304576,0.9999395234400523,-34.512822612894595
8.652174336,0.999910953326226,-34.78419130661007
8.663043072,0.9998866377866014,-35.055202908609516
8.673912832,0.9998674846705321,-35.3259702281786
8.684782592,0.9998545273508385,-35.59650062380417
8.695652352,0.9998486233452305,-35.86695522423624
8.706522112,0.9998498590169964,-36.13734261377605
8.717390848,0.9998583251524276,-36.40783249651889
8.728260608,0.9998736408447266,-36.678450899936365
8.739130368,0.9998949009687194,-36.9493540995121
8.750000128,0.9999212000243889,-37.2205429320167
8.760869888,0.9999511654534118,-37.492130197882794
8.771738624,0.9999832473228815,-37.764097185518885
8.782608384,1.0000159567780416,-38.03651496907662
8.793478144,1.0000476947971881,-38.309314368605754
8.804347904,1.0000767711707383,-38.58254907947187
8.815217664,1.0001016922980033,-38.856156800003625
8.826087424,1.000121385145848,-39.13004313528055
8.83695616,1.0001346406496627,-39.40415074827985
8.84782592,1.0001410249691653,-39.67837700202198
8.85869568,1.0001398659835303,-39.95269631968127
8.86956544,1.000131553069245,-40.22692909695981
8.8804352,1.0001163062899268,-40.50103530869368
8.891303936,1.0000948256790059,-40.77491865757088
8.902173696,1.0000683329773048,-41.04847698760032
8.913043456,1.0000379850750292,-41.321708280266584
8.923913216,1.0000053932946384,-41.59453576331828
8.934782976,0.9999721177374205,-41.866950907980964
8.945651712,0.9999398138774852,-42.13897514363769
8.956521472,0.9999101014467915,-42.410574749382995
8.967391232,0.9998845979434636,-42.68182056713711
8.978260992,0.9998644267000008,-42.95279991163659
8.989130752,0.9998505332582603,-43.22359122701125
8.999999488,0.9998438703808273,-43.4942211397361
9.010869248,0.9998447700390473,-43.76482074131595
9.021739008,0.9998530179102034,-44.0355201697167
9.032608768,0.9998682959731119,-44.30634823218821
9.043478528,0.9998899047920622,-44.57742811188154
9.054348288,0.9999168087068825,-44.84884263068914
9.065217024,0.9999475339282213,-45.12061059832528
9.076086784,0.9999807051003448,-45.39281521256997
9.086956544,1.000014539558026,-45.66547386601603
9.097826304,1.0000474083769642,-45.93853335880715
9.108696064,1.0000776968608496,-46.21202925114796
9.1195648,1.0001039676295127,-46.48589964682488
9.13043456,1.0001247263504047,-46.760096443645644
9.14130432,1.0001388996244716,-47.03453128350837
9.15217408,1.0001459559455426,-47.30909156420701
9.16304384,1.0001453817560733,-47.58373767698102
9.173912576,1.0001371772004608,-47.85831063184067
9.184782336,1.0001218634347646,-48.13276813670486
9.195652096,1.0001000785912493,-48.40699187521145
9.206521856,1.0000730464871894,-48.68089436818863
9.217391616,1.0000418285973973,-48.9544526237417
9.228261376,1.0000081206342757,-49.22758401742822
9.239130112,0.999973651268676,-49.50031031728336
9.249999872,0.9999400540180382,-49.77261063406703
9.260869632,0.9999092599487448,-50.04446797318855
9.271739392,0.9998823978859436,-50.315998411608234
9.282609152,0.9998610877548366,-50.58720986827364
9.293477888,0.9998463899543201,-50.85819675126199
9.304347648,0.9998389952508292,-51.129064470771354
9.315217408,0.9998392753111507,-51.399888344968154
9.326087168,0.9998472846375813,-51.67076258965238
9.336956928,0.9998627215368041,-51.94179865114958
9.347825664,0.9998845997516411,-52.213089184040015
9.358695424,0.9999121710484594,-52.484706870619355
9.369565184,0.9999437266735316,-52.75668659892363
9.380434944,0.9999779728382139,-53.029142368908545
9.391304704,1.0000130254458213,-53.30202647946041
9.40217344,1.0000472463177141,-53.575376566778914
9.4130432,1.0000788244109682,-53.84914823338987
9.42391296,1.0001062151010212,-54.1233234526348
9.43478272,1.000128131507969,-54.39782961308679
9.44565248,1.0001434683543773,-54.67257887808112
9.45652224,1.000151265310907,-54.947500087618245
9.467390976,1.0001511678610786,-55.22246514557973
9.478260736,1.000143286751305,-55.49742445959349
9.489130496,1.0001279810604562,-55.77221481520156
9.500000256,1.0001057415021368,-56.04680334290154
9.510870016,1.000077988196625,-56.32105714540382
9.521738752,1.0000459229143432,-56.59494974475529
9.532608512,1.0000111803089629,-56.86843314937018
9.543478272,0.9999754395607354,-57.141439467765956
9.554348032,0.9999405666961234,-57.41403226013471
9.565217792,0.9999082662048071,-57.68619365034398
9.576086528,0.9998801345809638,-57.95796467275754
9.586956288,0.9998577092740043,-58.229430214219114
9.597826048,0.9998419542569196,-58.5006643432124
9.608695808,0.9998337470934269,-58.771724205775065
9.619565568,0.9998335145705504,-59.04275735725892
9.630434304,0.9998412167441096,-59.31385359994806
9.641304064,0.9998567288209107,-59.585087013991014
9.652173824,0.9998790431761406,-59.85658059187365
9.663043584,0.9999072616345248,-60.12841732976164
9.673913344,0.9999396848439857,-60.40065422039259
9.684783104,0.9999750871292297,-60.673317748716784
9.69565184,1.0000114761537129,-60.94647359260579
9.7065216,1.0000470582447067,-61.22008611230398
9.71739136,1.0000801241868713,-61.49416162240848
9.72826112,1.0001088604457877,-61.768654730801245
9.73913088,1.0001319793605317,-62.04347093583971
9.749999616,1.0001483285547164,-62.318572405542724
9.760869376,1.0001569220778366,-62.59384337431462
9.771739136,1.0001575307838728,-62.86918494301421
9.782608896,1.0001498369099187,-63.14450459163312
9.793478656,1.0001343431206347,-63.41968879647491
9.804347392,1.0001118317008695,-63.69461728038102
9.815217152,1.000083324498361,-63.96926035562358
9.826086912,1.0000503443265503,-64.24350274564655
9.836956672,1.000014371191255,-64.51729924051787
9.847826432,0.9999773320191345,-64.79065883917022
9.858695168,0.9999411118296464,-65.06355329647464
9.869564928,0.9999072667745138,-65.33600022960093
9.880434688,0.9998777609819312,-65.60803908428227
9.891304448,0.9998540364855303,-65.87975888183199
9.902174208,0.9998372074109562,-66.15123424424749
9.913043968,0.9998281705002289,-66.422536217494
9.923912704,0.9998273124340309,-66.69378861165053
9.934782464,0.999834837183451,-66.96509262858673
9.945652224,0.9998504650376373,-67.23654048860432
9.956521984,0.9998731801105104,-67.50824162044394
9.967391744,0.999902082312544,-67.78029548585171
9.97826048,0.9999355096678797,-68.05276943746583
9.98913024,0.9999720205385381,-68.32568570873134
10.0,1.0000098199370187,-68.59910222420814
10.01086976,1.0000468734074057,-68.87300362305953
10.02173952,1.000081406602214,-69.14737532577868
10.032608256,1.0001116226611486,-69.42218798965709
10.043478016,1.0001361176088726,-69.69735187925149
10.054347776,1.0001535629706486,-69.97281200678944
10.065217536,1.000163161665985,-70.24845731902194
10.076087296,1.0001642300269864,-70.52417354160606
10.086956032,1.0001567050488087,-70.79988387320681
10.097825792,1.0001413065047542,-71.07544990107158
10.108695552,1.0001183554411097,-71.35075987270635
10.119565312,1.0000891342098364,-71.62577825618276
10.130435072,1.0000551017082808,-71.90039078292378
10.141304832,1.0000179567662173,-72.17456558853462
10.152173568,0.9999795241890139,-72.44825525376184
10.163043328,0.999941657718591,-72.72145938835124
10.173913088,0.9999063780764346,-72.99421416302077
10.184782848,0.9998752953542198,-73.26653907636728
10.195652608,0.999850162436941,-73.53852180160038
10.206521344,0.9998321566508092,-73.81023266598918
10.217391104,0.9998220861768277,-74.08176978376558
10.228260864,0.9998207921124814,-74.35323036285618
10.239130624,0.9998279938040088,-74.62475801945838
10.250000384,0.99984362007438,-74.89642308323782
10.26086912,0.9998668304757146,-75.16834751951278
10.27173888,0.9998964690463763,-75.44062419042805
10.28260864,0.9999310216865125,-75.71333801500062
10.2934784,0.9999688291327286,-75.98650269642943
10.30434816,1.0000081524518345,-76.2601967731387
10.315216896,1.0000467542177451,-76.534391693652
10.326086656,1.00008296466861,-76.80908497238579
10.336956416,1.0001147551100928,-77.08421265264008
10.347826176,1.0001406293039143,-77.35975871823496
10.358695936,1.0001592562945874,-77.63558431716746
