freq,mag,phase
6.0,0.9996100156434737,21.113839865026367
6.002286592,0.9996325234203726,20.939770722067063
6.004572672,0.9996776567748622,20.765134845868737
6.006859264,0.9997430540696419,20.58956843314061
6.009145344,0.9998246770142691,20.41282747419105
6.011431936,0.999917295743563,20.23474799655198
6.013718016,1.0000151483634692,20.055172503163565
6.016004608,1.0001120779381678,19.874071808540112
6.018290688,1.0002019317691866,19.691522906054317
6.02057728,1.0002790689139338,19.50765263910633
6.022863872,1.0003385452749392,19.32268109664413
6.025149952,1.0003768157842394,19.13689685835767
6.027436544,1.0003912479222108,18.950633179369053
6.029722624,1.000381025816604,18.76421139632878
6.032009216,1.0003467887626931,18.578019969261533
6.034295296,1.000290594974938,18.392383169114215
6.036581888,1.0002160247542848,18.207566293675036
6.03886848,1.0001279288973906,18.02381805065629
6.04115456,1.0000316244537053,17.841316726909234
6.043441152,0.9999332303878808,17.6601146497994
6.045727232,0.9998390085561134,17.48019431777149
6.048013824,0.9997548914162967,17.301446796567355
6.050299904,0.9996861044092754,17.12371238980355
6.052586496,0.9996371570808148,16.946705336395016
6.054872576,0.999611006819522,16.770167319122756
6.057159168,0.9996092710640285,16.593693019168885
6.05944576,0.9996322117060934,16.416972099104424
6.06173184,0.9996783363926585,16.239641273016876
6.064018432,0.9997446702798296,16.06137099405173
6.066304512,0.9998271230104167,15.881927270868902
6.068591104,0.9999204464875332,15.701066218255107
6.070877184,1.0000188408820196,15.518746660969082
6.073163776,1.000116054121184,15.334864973215424
6.075450368,1.0002059081791024,15.149519077234922
6.077736448,1.0002827622580464,14.962855448901712
6.08002304,1.0003418530849995,14.775106538585536
6.08230912,1.0003794452294144,14.586521898522673
6.084595712,1.0003931037171796,14.397472573853793
6.086881792,1.0003819014360287,14.208271029058528
6.089168384,1.0003466659331437,14.019310140665949
6.091454464,1.0002895874222033,13.83089350389501
6.093741056,1.0002141961021311,13.643312149827286
6.096027648,1.0001252115437202,13.456823418136949
6.098313728,1.000028313576196,13.271549190192673
6.10060032,0.9999295861455975,13.087586324683295
6.1028864,0.9998352752110795,12.904883219437211
6.105172992,0.9997511865085843,12.723386488132533
6.107459072,0.9996827278127345,12.542878094726037
6.109745664,0.9996342118217012,12.363083898838589
6.112032256,0.9996088050482539,12.183719770463911
6.114318336,0.999608006534076,12.004431466466844
6.116604928,0.9996316993912027,11.824868706507042
6.118891008,0.9996787603116023,11.644650403411816
6.1211776,0.999746049450548,11.463505491465465
6.12346368,0.9998292936652818,11.281149185108124
6.125750272,0.9999233537349383,11.097376432406238
6.128036352,1.0000221229849209,10.91209146309365
6.130322944,1.0001195954902047,10.725290475477026
6.132609536,1.0002095452163358,10.53697094790757
6.134895616,1.0002863060581921,10.347338341967223
6.137182208,1.0003450660193454,10.156610338841201
6.139468288,1.0003820117463738,9.965066393215402
6.14175488,1.0003949243911467,9.773052164277852
6.14404096,1.000382996410812,9.580884891169468
6.146327552,1.0003469375152783,9.388951683431618
6.148614144,1.0002889873143415,9.197573322125544
6.150900224,1.0002127597482295,9.007051493911167
6.153186816,1.0001231371304256,8.817606378631023
6.155472896,1.000025757765567,8.6293799296518
6.157759488,0.9999265156109355,8.442466884476264
6.160045568,0.9998319913418847,8.256841573737765
6.16233216,0.9997480013479169,8.072366198635038
6.16461824,0.9996797406300565,7.8888856953777085
6.166904832,0.9996317131779566,7.7061190865799984
6.169191424,0.9996068114870996,7.523765974652013
6.171477504,0.999606651953616,7.341464753062203
6.173764096,0.9996312553179302,7.1588571784717185
6.176050176,0.9996791030757244,6.9756136679416585
6.178336768,0.9997471682250426,6.791392529919556
6.180622848,0.9998311448335298,6.605950142470235
6.18290944,0.9999257257457228,6.419081027132617
6.18519552,1.0000251331685144,6.230680438302635
6.187482112,1.000122883902392,6.040729571908825
6.189768704,1.0002129660120909,5.8492967022235165
6.192054784,1.0002895437561392,5.656520579001332
6.194341376,1.0003480181838373,5.462649156422056
6.196627456,1.0003845959495579,5.267942560313489
6.198914048,1.0003969055642772,5.072765852279166
6.201200128,1.0003843568668975,4.877451953892345
6.20348672,1.0003474173495457,4.682376734498521
6.205773312,1.0002887865330705,4.487866653527108
6.208059392,1.0002118366550539,4.294185550963998
6.210345984,1.0001215115485211,4.101617325777647
6.212632064,1.0000234575066997,3.9102436745747156
6.214918656,0.9999240050188393,3.720191379747829
6.217204736,0.9998292099615932,3.531419172037513
6.219491328,0.9997450692219882,3.3438219930426163
6.221777408,0.9996770151833361,3.157182460618216
6.224064,0.9996293045437452,2.9712508515826057
6.226350592,0.9996048906477286,2.78572341023211
6.228636672,0.9996052590995405,2.6002403314659706
6.230923264,0.9996305302516859,2.414420991255613
6.233209344,0.999679116458606,2.22796372569592
6.235495936,0.9997478423270125,2.040489080245268
6.237782016,0.9998325343539085,1.8518028130240887
6.240068608,0.9999277287885283,1.6616571316393973
6.2423552,1.0000275563628545,1.4699583556330456
6.24464128,1.0001256171032584,1.2767128687225984
6.246927872,1.0002158787813606,1.0819490342366511
6.249213952,1.000292531387583,0.8858680740877832
6.251500544,1.0003508516685418,0.6886708876908081
6.253786624,1.0003870327961133,0.49062539297693863
6.256073216,1.0003990033742325,0.29213585115526586
6.258359296,1.0003857814410781,0.09348062732718036
6.260645888,1.0003483381302447,-0.10492897462121445
6.26293248,1.0002889821909728,-0.30277290570148185
6.26521856,1.0002113801010986,-0.4997689456886653
6.267505152,1.000120451291403,-0.6956815550269558
6.269791232,1.000021972862454,-0.8903459420938684
6.272077824,0.9999219066106705,-1.0837282348806747
6.274363904,0.9998268769959084,-1.2758260151280665
6.276650496,0.9997426204970622,-1.4667780223785125
6.278937088,0.99967451100621,-1.6567604071153403
6.281223168,0.9996269910558144,-1.8460167319855794
6.28350976,0.9996028417294921,-2.0349004792940306
6.28579584,0.9996037411623122,-2.2237738314898454
6.288082432,0.9996295046102742,-2.4129452231950927
6.290368512,0.9996786623242997,-2.6028168922895647
6.292655104,0.9997479635644396,-2.793691483431789
6.294941184,0.9998332731594853,-2.985806068585676
6.297227776,0.9999290975023377,-3.1794174530242656
6.299514368,1.000029353439237,-3.3745580812744103
6.301800448,1.0001277874645114,-3.571263471409373
6.30408704,1.0002183152959996,-3.769503836312688
6.30637312,1.0002950151370884,-3.9690967258435226
6.308659712,1.000353336845613,-4.1698023008162695
6.310945792,1.00038936421179,-4.371321066235679
6.313232384,1.0004010069755094,-4.573347368591994
6.315518464,1.0003873614180123,-4.7755002851356165
6.317805056,1.0003494967930353,-4.977422352579435
6.320091648,1.0002894425080235,-5.17877588044185
6.322377728,1.0002112733933242,-5.379278921319869
6.32466432,1.0001198507044957,-5.578691862564821
6.3269504,1.0000207859157593,-5.776855964095386
6.329236992,0.9999203808831807,-5.973744257648088
6.331523072,0.999824994156433,-6.1693577946736795
6.333809664,0.9997404928925835,-6.363809157625435
6.336096256,0.9996723691292032,-6.55730445369992
6.338382336,0.9996248065873538,-6.750085343451517
6.340668928,0.9996008766917762,-6.942517662679294
6.342955008,0.999601999607587,-7.134911545516423
6.3452416,0.9996282350190854,-7.3276597899845894
6.34752768,0.9996779005084162,-7.5210888381976
6.349814272,0.9997476876327716,-7.715542988740476
6.352100352,0.9998334968442332,-7.911281076643937
6.354386944,0.9999298543596771,-8.108470662422077
6.356673536,1.0000305934516034,-8.307231031623209
6.358959616,1.0001294701336352,-8.50759839653836
6.361246208,1.0002203510704977,-8.709470716286143
6.363532288,1.0002972347232815,-8.912719485519757
6.36581888,1.0003556065311583,-9.117095014756805
6.36810496,1.000391671840677,-9.322287164509087
6.370391552,1.0004031305415386,-9.527989620934365
6.372678144,1.0003892230790679,-9.73383287338033
6.374964224,1.000351004372981,-9.939419412018148
6.377250816,1.0002906112254726,-10.144458329533714
6.379536896,1.0002119768174542,-10.348635516415925
6.381823488,1.0001199555017783,-10.551754741966985
6.384109568,1.0000204479170653,-10.753634973250314
6.38639616,0.9999195659835656,-10.954183897294778
6.38868224,0.9998237300447367,-11.153488410887721
6.390968832,0.999738953107982,-11.351629090517804
6.393255424,0.999670667119659,-11.54880298649444
6.395541504,0.9996229426717967,-11.745300853103657
6.397828096,0.9995990190131071,-11.941413393335504
6.400114176,0.9996002188084933,-12.137532807210924
6.402400768,0.9996267609229909,-12.333991824048159
6.404686848,0.9996766019784292,-12.53114840305144
6.40697344,0.9997469486988886,-12.72935093675116
6.409260032,0.9998331680810089,-12.928820123125137
6.411546112,0.9999299294662066,-13.129775401496564
6.413832704,1.000031208545259,-13.332333013914994
6.416118784,1.000130533653892,-13.536485471676313
6.418405376,1.000221754656318,-13.742162053095365
6.420691456,1.0002989861852514,-13.949220317624098
6.422978048,1.0003576453595964,-14.157421789576153
6.425264128,1.0003938400456773,-14.366452370706797
6.42755072,1.0004051999443209,-14.575988193891805
6.429837312,1.0003913148148453,-14.785669591083396
6.432123392,1.0003526939015752,-14.995129712631968
6.434409984,1.0002920479241257,-15.20401677157778
6.436696064,1.0002129508074695,-15.412046485736907
6.438982656,1.000120605906644,-15.619014022316561
6.441268736,1.000020588533384,-15.82474571659394
6.443555328,0.999919219189508,-16.029170936173482
6.44584192,0.9998229651687977,-16.232307051631746
6.448128,0.9997378472527068,-16.43431976781597
6.450414592,0.9996691006880477,-16.635366287914252
6.452700672,0.9996211599976815,-16.835699893823985
6.454987264,0.9995971493201671,-17.03567489937096
6.457273344,0.9995983304355052,-17.23564027409053
6.459559936,0.9996248509714781,-17.435987059942807
6.461846016,0.9996750119615236,-17.637037553487946
6.464132608,0.99974561070702,-17.839122984717513
6.4664192,0.9998322643737116,-18.042508999282504
6.46870528,0.9999294389387124,-18.24737263018774
6.470991872,1.0000312327490497,-18.45384569844032
6.473277952,1.0001311106984578,-18.661919271760972
6.475564544,1.0002227609992138,-18.871563972392718
6.477850624,1.0003005106130785,-19.082580583875625
6.480137216,1.0003594157120939,-19.294726797735596
6.482423296,1.000395782828416,-19.50777256865686
6.484709888,1.0004075582951317,-19.721307665297665
6.48699648,1.0003936333838048,-19.934979999487265
6.48928256,1.0003549703578503,-20.14844937184752
6.491569152,1.00029408823301,-20.3613542593734
6.493855232,1.0002148616014757,-20.573416333138685
6.496141824,1.0001219794814658,-20.784381936893645
6.498427904,1.0000215373192638,-20.994127267003176
6.500714496,0.9999196709013602,-21.202552738249427
6.503001088,0.9998228252334478,-21.409723925017254
6.505287168,0.9997372068483859,-21.615728861974027
6.50757376,0.9996680393277965,-21.820772915433118
6.50985984,0.9996197523708906,-22.025137657992715
6.512146432,0.9995953012661856,-22.22912809125853
6.514432512,0.9995963729225887,-22.433128582100263
6.516719104,0.999622756663571,-22.637469834739655
6.519005184,0.9996729325965785,-22.84255706378696
6.521291776,0.9997437491390065,-23.04865883895486
6.523578368,0.9998307357556419,-23.256059942518
6.525864448,0.9999283092543931,-23.464977723347513
6.52815104,1.0000305320528473,-23.675512102583696
6.53043712,1.0001309286240891,-23.887677831270608
6.532723712,1.000223219212726,-24.10138570206188
6.535009792,1.0003014498869094,-24.316513153107945
6.537296384,1.0003609710962733,-24.532789910136035
6.539582976,1.00039784929528,-24.74992550104554
6.541869056,1.0004098023851262,-24.96758703021676
6.544155648,1.0003961555775966,-25.185433904426965
6.546441728,1.00035773722352,-25.40302421599796
6.54872832,1.000296753104459,-25.620086197216832
6.5510144,1.0002173181176932,-25.83629860363316
6.553300992,1.0001242163400508,-26.05144827736817
6.555587072,1.0000233057757795,-26.265340955495674
6.557873664,0.9999209090277139,-26.477943662289757
6.560160256,0.9998235819528659,-26.689253002003426
6.562446336,0.9997372853144488,-26.899434306962277
6.564732928,0.9996674608600079,-27.10862987707354
6.567019008,0.9996185195115557,-27.31714178949392
6.5693056,0.9995936868077686,-27.52527735638623
6.57159168,0.9995943462693058,-27.733410722951607
6.573878272,0.9996205091483115,-27.941909241019246
6.576164864,0.9996706121652961,-28.15110613595611
6.578450944,0.999741411665026,-28.361371082670857
6.580737536,0.9998285021321424,-28.572958084112674
6.583023616,0.9999265144880155,-28.78603837133578
6.585310208,1.0000291788643714,-29.000731904301503
6.587596288,1.0001302067722575,-29.21708162689538
6.58988288,1.0002231147356602,-29.435003628868436
6.59216896,1.0003020451112095,-29.654326144275412
6.594455552,1.0003622321845456,-29.874831673197423
6.596742144,1.0003997392310735,-30.096238321596235
6.599028224,1.0004122235489448,-30.318140821913627
6.601314816,1.0003990224081425,-30.540236185176436
6.603600896,1.0003607850154643,-30.762122844720103
6.605887488,1.0002999205678642,-30.983477622467085
6.608173568,1.0002203737132933,-31.2039705724254
6.61046016,1.0001271003423085,-31.423397541876778
6.612746752,1.0000257311330196,-31.64157213805869
6.615032832,0.9999228439842905,-31.858472395308848
6.617319424,0.9998248222137571,-32.074085351188685
6.619605504,0.9997377926966508,-32.28852286968432
6.621892096,0.9996672145300078,-32.501994015662945
6.624178176,0.9996176389896826,-32.714775263975135
6.626464768,0.9995920130127005,-32.92717305190417
6.628750848,0.9995921126646705,-33.139562671136034
6.63103744,0.9996178472412283,-33.35230205503387
6.633324032,0.999667616646422,-33.56576503846746
6.635610112,0.9997384146220816,-33.78027754878687
6.637896704,0.9998257139318079,-33.99611063272463
6.640182784,0.9999239755037627,-34.2134657807467
6.642469376,1.0000271246014014,-34.43241514970312
6.644755456,1.000128735547074,-34.653059344053595
6.647042048,1.0002223816726636,-34.87528123495057
6.649328128,1.0003021077733425,-35.098903598762696
6.65161472,1.0003631458321,-35.323742410310835
6.653901312,1.000401446277348,-35.54948608492027
6.656187392,1.0004147376091457,-35.77574162548025
6.658473984,1.0004020791108024,-36.00221446339946
6.660760064,1.0003642515095128,-36.228463277492864
6.663046656,1.0003037152149206,-36.45420311504029
6.665332736,1.0002242716161773,-36.67909025695252
6.667619328,1.0001307480216974,-36.9029254902121
6.66990592,1.000029003026887,-37.12553071708597
6.672192,0.9999255971316369,-37.34680126942651
6.674478592,0.99982677952041,-37.56680704894059
6.676764672,0.9997389864271483,-37.78561359352636
6.679051264,0.9996675298337137,-38.00345770330179
6.681337344,0.9996169462609904,-38.22058776332734
6.683623936,0.9995904456747028,-38.43735093522728
6.685910016,0.999589758283247,-38.65409375086788
6.688196608,0.9996149399917595,-38.871177066678754
6.6904832,0.9996642937754329,-39.08897734063957
6.69276928,0.9997348364705829,-39.30781831330221
6.695055872,0.999822054374314,-39.527956625787034
6.697341952,0.9999205597855426,-39.74963565022454
6.699628544,1.0000242186285304,-39.972973271708646
6.701914624,1.0001265875477159,-40.19795309956425
6.704201216,1.0002209461919063,-40.42451983166828
6.706487808,1.000301679040074,-40.65257851010039
6.708773888,1.000363763744923,-40.88178317538926
6.71106048,1.0004029698605041,-41.11193420307046
6.71334656,1.0004171706839662,-41.34264087420367
6.715633152,1.0004053200934129,-41.573545347309285
6.717919232,1.0003681741236146,-41.80428484977125
6.720205824,1.0003081336726671,-42.03447448415025
6.722491904,1.0002287396303575,-42.26384643020021
6.724778496,1.0001351180785354,-42.49216257358866
6.727065088,1.0000331024933753,-42.7192178848136
6.729351168,0.999929025242152,-42.94499142002463
6.73163776,0.9998295121933569,-43.169449653975825
6.73392384,0.9997407179542558,-43.39272381717987
6.736210432,0.9996682118152455,-43.61501608494074
6.738496512,0.999616587621216,-43.83658050035031
6.740783104,0.9995890960148516,-44.057745481585066
6.743069696,0.9995874232032153,-44.278886141284715
6.745355776,0.999611671820516,-44.500380065014056
6.747642368,0.9996604510438917,-44.7225559040359
6.749928448,0.9997306062871236,-44.94578679592495
6.75221504,0.9998177739279723,-45.17031590019163
6.75450112,0.9999164788958391,-45.396380974143156
6.756787712,1.0000206142296233,-45.624085001288236
6.759073792,1.0001235365043968,-45.853457350658864
6.761360384,1.0002190079315532,-46.084451090373975
6.763646976,1.000300853085761,-46.31689237674475
6.765933056,1.0003639668928987,-46.55057064531341
6.768219648,1.0004044366317875,-46.78517918705422
6.770505728,1.0004197039488867,-47.02036164168232
6.77279232,1.0004089089791328,-47.25574813826567
6.7750784,1.0003725623098532,-47.490973284191305
6.777364992,1.0003131236873586,-47.7257090754584
6.779651584,1.0002340375203542,-47.95960735549533
6.781937664,1.0001404170365895,-48.192443856809504
6.784224256,1.0000380094066406,-48.42405221293736
6.786510336,0.9999334468426193,-48.654339354400385
6.788796928,0.999833080004354,-48.88331099993625
6.791083008,0.9997432121101172,-49.11109549497537
6.7933696,0.999669555050242,-49.33788355679176
6.79565568,0.999616597726866,-49.56391505799438
6.797942272,0.9995878443250547,-49.78954485134028
6.800228864,0.9995850215886375,-50.01511469334102
6.802514944,0.9996082586995335,-50.241017332660725
6.804801536,0.9996561745300528,-50.46761295128382
6.807087616,0.9997258126079751,-50.69522388509085
6.809374208,0.9998128399668011,-50.92415945639381
6.811660288,0.9999117081481269,-51.154602406960876
6.81394688,1.0000161506257101,-51.38671389370602
6.81623296,1.0001199175697353,-51.62049824822491
6.818519552,1.0002162511443893,-51.855903668450345
6.820806144,1.0002993336666781,-52.0927759912931
6.823092224,1.0003637605372309,-52.33090511452268
6.825378816,1.000405682657784,-52.56997672350749
6.827664896,1.0004222833614447,-52.809635127102496
6.829951488,1.0004126423199362,-53.0495454837424
6.832237568,1.0003773921337806,-53.28930404755536
6.83452416,1.0003186719442643,-53.528558377317445
6.836810752,1.0002400313312627,-53.76702594874966
6.839096832,1.000146504006317,-54.00440150472439
6.841383424,1.000043971912994,-54.24053968226942
6.843669504,0.9999386974617946,-54.475361172476674
6.845956096,0.9998374459315177,-54.70885629837564
6.848242176,0.9997463576531568,-54.94115497731324
6.850528768,0.9996713302936054,-55.17242845195184
6.852814848,0.9996169915533758,-55.40295220158897
6.85510144,0.9995866529795256,-55.633029702955234
6.857388032,0.999582494762127,-55.863046149830105
6.859674112,0.9996044950028459,-56.093349146123096
6.861960704,0.9996514259034768,-56.3243431095746
6.864246784,0.9997203997165648,-56.55633345503299
6.866533376,0.9998069677421144,-56.78964786774672
6.868819456,0.9999058510589981,-57.02446142589578
6.871106048,1.000010843254,-57.26093419535819
6.87339264,1.0001152359577112,-57.49907836481761
6.87567872,1.00021277303915,-57.7388722392735
6.877965312,1.000297100468746,-57.98014799635485
6.880251392,1.0003630450406205,-58.22269551172154
6.882537984,1.0004064627430438,-58.46620819684411
6.884824064,1.0004246664845373,-58.71032989293197
6.887110656,1.0004165170292556,-58.9547086200801
6.889396736,1.00038239195178,-59.198977566825675
6.891683328,1.0003245551145286,-59.442730091659094
6.89396992,1.0002465982059932,-59.68571260758001
6.896256,1.0001532760373795,-59.92760639538135
6.898542592,1.0000505291697352,-60.16827559913331
6.900828672,0.99994476172554,-60.40761051363518
6.903115264,0.9998424954386386,-60.64563314611439
6.905401344,0.9997501656563236,-60.882410923080826
6.907687936,0.9996736313295346,-61.118152048203974
6.909974528,0.9996176614346589,-61.35308739407922
6.912260608,0.9995858068271355,-61.5875724764989
6.9145472,0.9995799543150824,-61.82197499573534
6.91683328,0.9996004387273668,-62.05664329089619
