freq,mag,phase
6.0,0.9991567878280204,-57.80632085058519
6.013222912,0.9989967820204076,-58.35907762493662
6.026446336,0.9988808251335,-58.91038663551969
6.039669248,0.9988150484475847,-59.460840666959875
6.052892672,0.998802046667137,-60.01104170155903
6.066115584,0.9988426880555092,-60.56161611845453
6.079339008,0.9989350455145246,-61.11331202012059
6.09256192,0.9990751073834927,-61.66662582988725
6.105785344,0.9992566844522345,-62.22217732133544
6.119008256,0.9994716726981686,-62.78039200404453
6.132231168,0.9997103907006926,-63.34161736211262
6.145454592,0.9999622107859613,-63.90609251614125
6.158677504,1.000215724002607,-64.47394378208365
6.171900928,1.0004596754958948,-65.04502717891886
6.18512384,1.0006831061893229,-65.61925186512698
6.198347264,1.0008758301238012,-66.19625128823435
6.211570176,1.0010293772464371,-66.77562810844006
6.2247936,1.0011365552474554,-67.35685270435104
6.238016512,1.0011930734611665,-67.93932926025022
6.251239424,1.0011956635053294,-68.52245403501233
6.264462848,1.0011444581564892,-69.10553961524022
6.27768576,1.0010417775513782,-69.68794005226208
6.290909184,1.0008918669939662,-70.26906083605708
6.304132096,1.0007016275833522,-70.84842731034634
6.31735552,1.0004792752310967,-71.42550605668134
6.330578432,1.0002350093183148,-72.00000630099503
6.343801856,0.9999794487980287,-72.57169865435085
6.357024768,0.9997242588498543,-73.14057890431275
6.37024768,0.9994807019900115,-73.70665425776536
6.383471104,0.9992599535056701,-74.27017501578554
6.396694016,0.999071855498245,-74.83139650417846
6.40991744,0.9989249187916909,-75.39081626733042
6.423140352,0.9988257818783246,-75.94902728991298
6.436363776,0.9987788584746043,-76.5065795546505
6.449586688,0.9987865876233203,-77.06411485633973
6.462810112,0.9988485443478398,-77.62233929459786
6.476033024,0.9989620871541727,-78.18187005115011
6.489256448,0.9991222396996845,-78.743342584702
6.50247936,0.9993215398723917,-79.30728443797827
6.515702272,0.9995515496203988,-79.8740751096857
6.528925696,0.9998016604503359,-80.44406492690399
6.542148608,1.0000608689165538,-81.01740894099865
6.555372032,1.0003175228147936,-81.59419180106627
6.568594944,1.0005599323172454,-82.17427117166146
6.581818368,1.000777382382578,-82.75737617964847
6.59504128,1.0009603332272807,-83.34320805171332
6.608264704,1.0010999975078798,-83.93125550849884
6.621487616,1.0011906073984864,-84.52099670092167
6.634710528,1.0012279007320095,-85.11180580137432
6.647933952,1.001209895129852,-85.70300760097928
6.661156864,1.0011376073366725,-86.29387433461557
6.674380288,1.0010139790301535,-86.88387579941087
6.6876032,1.0008446054099196,-87.4723471798743
6.700826624,1.0006369426587043,-88.05881773027319
6.714049536,1.000400092787857,-88.64281316514457
6.72727296,1.000144865286878,-89.22412940593601
6.740495872,0.9998824386872455,-89.80251290185649
6.753718784,0.9996246105628488,-90.37801808442889
6.766942208,0.9993830438912801,-90.95072045883109
6.78016512,0.9991684820006398,-91.52088826032222
6.793388544,0.998990634431119,-92.08890131619272
6.806611456,0.9988575497506946,-92.65530819093746
6.81983488,0.9987754074224818,-93.22064612295421
6.833057792,0.9987477690396485,-93.7855258886856
6.846281216,0.9987761246974054,-94.3506843297938
6.859504128,0.9988591684407844,-94.91679143376979
6.87272704,0.9989932197616113,-95.4844564668
6.885950464,0.9991726025120513,-96.05430515080451
6.899173376,0.9993890709507639,-96.62684304482669
6.9123968,0.9996330662375081,-97.20242710946629
6.925619712,0.9998936052292035,-97.78135550790515
6.938843136,1.0001591654378372,-98.36374676854831
6.952066048,1.0004178441926619,-98.94959555079706
6.965289472,1.0006579406905545,-99.53876731288118
6.978512384,1.0008688229641824,-100.13094913704175
6.991735296,1.0010409833277978,-100.72575384478688
7.00495872,1.0011666530908405,-101.3226207498208
7.018181632,1.0012401585890391,-101.92095372205085
7.031405056,1.001258185549416,-102.52014691163681
7.044627968,1.0012197943771932,-103.11947997915918
7.057851392,1.0011266033103163,-103.7183226691085
7.071074304,1.0009827832268492,-104.31596877814142
7.084297728,1.000794387169149,-104.91186883905466
7.09752064,1.0005700651592866,-105.50556147856375
7.110743552,1.0003197025755504,-106.09662334597482
7.123966976,1.0000543370404555,-106.68483040451095
7.137189888,0.9997859460608698,-107.27003383456068
7.150413312,0.999526489570709,-107.85227352864307
7.163636224,0.9992875349455184,-108.43175854425535
7.176859648,0.9990798609711421,-109.00875504155955
7.19008256,0.998912927279102,-109.5837589752544
7.203305984,0.9987942140159022,-110.15722551727768
7.216528896,0.9987291893454247,-110.72982572333189
7.22975232,0.9987206903271193,-111.30226707594498
7.242975232,0.9987694325736046,-111.87516702826005
7.256198144,0.9988732880404065,-112.44925609698439
7.269421568,0.999027513465765,-113.0252197155937
7.28264448,0.9992254279117209,-113.60353543751138
7.295867904,0.9994581527200419,-114.18476978276934
7.309090816,0.9997153680003403,-114.76924540580771
7.32231424,0.9999855273669828,-115.3572028186694
7.335537152,1.0002567099034683,-115.94873516087874
7.348760576,1.0005166240650323,-116.54373071718372
7.361983488,1.0007537166791305,-117.14203592970732
7.3752064,1.00095739184931,-117.74328535452706
7.388429824,1.0011185185046048,-118.34701849022206
7.401652736,1.0012297609566108,-118.95274132508354
7.41487616,1.0012860912490211,-119.55971404338486
7.428099072,1.0012849037107998,-120.16729056061342
7.441322496,1.001226299700261,-120.7747698777102
7.454545408,1.001112607172632,-121.3815433992404
7.467768832,1.0009486981047044,-121.986863517099
7.480991744,1.0007421624307873,-122.59022893266976
7.494214656,1.0005018250247213,-123.19115035088616
7.50743808,1.0002385661487334,-123.78926352397772
7.520660992,0.9999638232396879,-124.38437414125478
7.533884416,0.9996900972879375,-124.97643019578885
7.547107328,0.999429556545718,-125.56546038336393
7.560330752,0.9991938710441688,-126.15174689857025
7.573553664,0.998993672832685,-126.73561337571009
7.586777088,0.9988380143194542,-127.31757028097454
7.6,0.9987338512543231,-127.8981688783839
7.613222912,0.998686051055495,-128.47813165621218
7.626446336,0.9986968181541188,-129.0580844806366
7.639669248,0.9987658087651372,-129.63878193141372
7.652892672,0.9988900220762459,-130.22089304871074
7.666115584,0.9990639467256692,-130.80510258960862
7.679339008,0.9992800540555984,-131.39195344887176
7.69256192,0.9995284321757522,-131.98183815743351
7.705785344,0.9997983467475694,-132.57516325090424
7.719008256,1.0000774854856422,-133.1721311424111
7.732231168,1.000353676600628,-133.772707314319
7.745454592,1.0006143226421904,-134.3768404146495
7.758677504,1.0008479733223767,-134.984213111183
7.771900928,1.0010440640868827,-135.59448299731795
7.78512384,1.0011937381747378,-136.20710508401262
7.798347264,1.001290339457242,-136.8215230617664
7.811570176,1.0013294432482267,-137.4370120224825
7.8247936,1.001309167101651,-138.05291562029322
7.838016512,1.001230306459854,-138.6684820225547
7.851239424,1.0010963577725607,-139.28304021360813
7.864462848,1.000913041492216,-139.89595924676007
7.87768576,1.0006885517255177,-140.50663680033523
7.890909184,1.0004326742457779,-141.11472457679957
7.904132096,1.0001569137084034,-141.71979565209878
7.91735552,0.9998734198643282,-142.32173849114932
7.930578432,0.9995947957714385,-142.92051525196365
7.943801856,0.9993336083853724,-143.51626830170625
7.957024768,0.9991015683794955,-144.1092541455806
7.97024768,0.9989091086374623,-144.6998959525421
7.983471104,0.99876484334681,-145.28875589198157
7.996694016,0.9986754386339505,-145.8763986296714
8.00991744,0.9986449185470824,-146.4635635943848
8.023140352,0.9986748271237585,-147.05095296695882
8.036363776,0.9987639744634654,-147.63933642655257
8.049586688,0.9989083981165309,-148.22935475416682
8.062810112,0.9991018208883341,-148.82171223207507
8.076033024,0.999335616319536,-149.41691081859415
8.089256448,0.9995994359534234,-150.01538950289483
8.10247936,0.9998815676821735,-150.61744581822606
8.115702272,1.0001694234373288,-151.22322557592136
8.128925696,1.0004502521876555,-151.83270657823547
8.142148608,1.000711386104465,-152.4457356000999
8.155372032,1.0009411816006124,-153.06202768698105
8.168594944,1.0011294184218371,-153.68109309931654
8.181818368,1.001267526701457,-154.30243250567423
8.19504128,1.0013494518751174,-154.92538199343278
8.208264704,1.0013712578483551,-155.54919053968953
8.221487616,1.0013319186758378,-156.17322669480387
8.234710528,1.0012330220391523,-156.79664099686516
8.247933952,1.0010789299175133,-157.4188031691311
8.261156864,1.0008763241846685,-158.03909467033307
8.274380288,1.0006340280207382,-158.65691071382744
8.2876032,1.000362865275145,-159.27189011087108
8.300826624,1.000074779661112,-159.88374695332564
8.314049536,0.9997827755536912,-160.49228044742497
8.32727296,0.9994994898560102,-161.09761639053886
8.340495872,0.9992379462928714,-161.69983915833038
8.353718784,0.9990097549304326,-162.2993101898951
8.366942208,0.9988250143608125,-162.89651978745647
8.38016512,0.9986924492988644,-163.492030013291
8.393388544,0.9986177809264462,-164.08651013118669
8.406611456,0.9986045597174078,-164.68065811797473
8.41983488,0.9986536129864446,-165.27526763803266
8.433057792,0.9987628480483943,-165.871077996504
8.446281216,0.9989274884416807,-166.46880390692155
8.459504128,0.9991401871648323,-167.06903442473654
8.47272704,0.9993917358335451,-167.6723295948621
8.485950464,0.9996707544412615,-168.2791196444029
8.499173376,0.9999651191867374,-168.88961437214863
8.5123968,1.000261445896845,-169.50397535999514
8.525619712,1.0005466761675292,-170.1220789584815
8.538843136,1.0008081376789064,-170.7437772975154
8.552066048,1.0010339967127828,-171.36868868761889
8.565289472,1.0012143919143162,-171.99629701899806
8.578512384,1.0013408478929202,-172.6260324803592
8.591735808,1.0014079427967704,-173.25721008455156
8.60495872,1.0014123952189473,-173.8890868247374
8.618181632,1.0013538095008891,-174.52086928052609
8.631404544,1.0012348786161747,-175.1518519652954
8.64462848,1.0010605320934012,-175.78134404058986
8.657851392,1.000838438828365,-176.40865591886924
8.671074304,1.0005784791933963,-177.0332893844413
8.684297216,1.0002919020249357,-177.6548818256383
8.697521152,0.9999916817396993,-178.2731384026454
8.710744064,0.9996908798939569,-178.88797530603443
8.723966976,0.9994030443677699,-179.4994901142786
8.737189888,0.9991411389681109,179.8921390733012
8.7504128,0.9989166508844327,179.2865060709256
8.763636736,0.9987399384027317,178.6831061687939
8.776859648,0.9986188651558185,178.0812890417751
8.79008256,0.9985591548416074,177.48036226737668
8.803305472,0.9985634023186613,176.87954177549688
8.816529408,0.9986317841018509,176.27807952443618
8.82975232,0.998761180523679,175.67521985387057
8.842975232,0.9989461179408314,175.07020639642468
8.856198144,0.9991785144276488,174.46242645911005
8.869421056,0.9994478628346295,173.8513620254959
8.882644992,0.9997423802319614,173.23667840594052
8.895867904,1.0000489589340145,172.61808231365046
8.909090816,1.0003540067221752,171.9955433356903
8.922313728,1.000644022460696,171.36915678652645
8.935537664,1.0009058528407822,170.73919566522466
8.948760576,1.001127981091669,170.10604273583877
8.961983488,1.0013003166403238,169.47027704661932
8.9752064,1.001415174998359,168.83250953999774
8.988429312,1.0014673865664825,168.1934979323101
9.001653248,1.0014542630802672,167.5539809594304
9.01487616,1.0013764293135206,166.91478621724704
9.028099072,1.0012370944513227,166.2766463555076
9.041321984,1.0010422914744186,165.64027260454026
9.05454592,1.0008005561712132,165.00632085813052
9.067768832,1.0005224226318423,164.37526395592224
9.080991744,1.0002201957665162,163.74750542396092
9.094214656,0.9999072644269578,163.12326039313808
9.107437568,0.9995975475312127,162.5025819927425
9.120661504,0.9993048992194123,161.88533202088868
9.133884416,0.9990422882548445,161.27127762548153
9.147107328,0.9988215759942835,160.65993459847087
9.16033024,0.9986527000714633,160.05076123003383
9.173554176,0.9985433401026532,159.44312497992246
9.186777088,0.9984985707322084,158.83619915453625
9.2,0.9985206515854471,158.22921440693878
9.213222912,0.9986086590324328,157.62138664757512
9.226445824,0.9987587424145288,157.0118923412492
9.23966976,0.9989643961463026,156.400042195577
9.252892672,0.9992168458892492,155.78518229251694
9.266115584,0.9995046165207812,155.1668659047033
9.279338496,0.999815150719278,154.54469671088438
9.292562432,1.000134640485047,153.91846192896134
9.305785344,1.0004487591629538,153.28817450759428
9.319008256,1.000743795668789,152.65398577983606
9.332231168,1.0010064486288763,152.0161849765498
9.34545408,1.0012248224194242,151.3752359476339
9.358678016,1.0013892783374223,150.7317445871138
9.371900928,1.0014924837435333,150.08639077273207
9.38512384,1.001529409859341,149.4399615076221
9.398346752,1.001498537538668,148.7932540397855
9.411570688,1.0014008379104289,148.147077329209
9.4247936,1.0012405852332313,147.50226355161615
9.438016512,1.0010245266838782,146.85948302070167
9.451239424,1.000762311655702,146.2193661263248
9.464462336,1.0004653723808825,145.58243039022122
9.477686272,1.0001466577568012,144.94900002552845
9.490909184,0.9998205315708436,144.31928230374302
9.504132096,0.9995012753634176,143.69325655409912
9.517355008,0.9992030603832922,143.070824385164
9.530578944,0.9989395320266524,142.45160526829258
9.543801856,0.9987222756281192,141.8351218929465
9.557024768,0.9985611803844497,141.2207962881967
9.57024768,0.9984637121828632,140.60782957607037
9.583470592,0.9984342938410595,139.9954798607036
9.596694528,0.9984744730213991,139.3828962015612
9.60991744,0.9985826576867044,138.7692272352165
9.623140352,0.9987542352791822,138.15368580521564
9.636363264,0.9989817210335346,137.5355312706248
9.6495872,0.9992550025037128,136.91411739487978
9.662810112,0.9995621904785496,136.28902455264054
9.676033024,0.9998896611082198,135.6598907715504
9.689255936,1.0002227940055928,135.0265234858963
9.702478848,1.0005468804878772,134.38895841090118
9.715702784,1.0008476522594223,133.74743472792835
9.728925696,1.001111345860974,133.10226816892327
9.742148608,1.001326432579945,132.45399698690397
9.75537152,1.0014830987800392,131.803238397935
9.768595456,1.0015743272572013,131.15076697046914
9.781818368,1.0015958471823951,130.49740190455003
9.79504128,1.0015463643318452,129.8439947596115
9.808264192,1.001428050122212,129.1913809185065
9.821487104,1.0012458498026193,128.54034194404045
9.83471104,1.0010076300169146,127.89163386531372
9.847933952,1.0007236908895714,127.24589653076372
9.861156864,1.0004066768855011,126.60358253383751
9.874379776,1.0000703938122162,125.96501859993991
9.887603712,0.9997297399320497,125.33038031389017
9.900826624,0.9993999497831786,124.69964881119473
9.914049536,0.9990956571056345,124.07258129675498
9.927272448,0.9988305233405838,123.44881721172284
9.94049536,0.9986164562894382,122.82780622500648
9.953719296,0.9984631688842899,122.20888550618098
9.966942208,0.9983777796207629,121.59125029031452
9.98016512,0.9983642285730341,120.97408204444575
9.993388032,0.9984234022887467,120.35646726711674
10.006611968,0.9985529029753277,119.73754807865568
10.01983488,0.9987470531148482,119.11650984568543
10.033057792,0.9989975793997758,118.4926179295091
10.046280704,0.9992934016504977,117.8652012711011
10.05950464,0.9996213251532254,117.23387585186187
10.072727552,0.999967155712825,116.59824610161219
10.085950464,1.0003152805993292,115.95822570437564
10.099173376,1.000650515197858,115.3138858639606
10.112396288,1.0009577656329605,114.66545978757947
10.125620224,1.0012233293058816,114.01337337027891
10.138843136,1.001435312527412,113.35818709775785
10.152066048,1.0015840851384108,112.70062434840283
10.16528896,1.0016630163095774,112.04149186637629
10.178512896,1.0016682455726535,111.38162594096178
10.191735808,1.0015993512783645,110.7219241918413
10.20495872,1.0014591108612698,110.06328237673608
10.218181632,1.001253446906443,109.40654645864242
10.231404544,1.000991359813971,108.7524081924297
10.24462848,1.000684103436598,108.10152842209335
10.257851392,1.000345247263231,107.4543769522371
10.271074304,0.9999896400559254,106.81126382183244
10.284297216,0.9996330787037944,106.1722913777882
10.297521152,0.9992915871582567,105.53739137631736
10.310744064,0.998980062900963,104.9062989030138
10.323966976,0.9987126719778249,104.2785901382102
10.337189888,0.9985014776416816,103.65366362038743
10.3504128,0.9983561808139763,103.03074483555974
10.363636736,0.9982832663282567,102.40904001498636
10.376859648,0.9982865174195059,101.78762536605426
10.39008256,0.9983659441197161,101.16556611492155
10.403305472,0.9985182470212582,100.5419673995621
10.416529408,0.998736830342592,99.91597856169871
10.42975232,0.9990123361007566,99.28683479510055
10.442975232,0.9993325656441754,98.65391661285248
10.456198144,0.9996834855447355,98.01676565790477
10.469421056,1.0000495664595377,97.37511324555183
10.482644992,1.0004145055524902,96.72885398647426
10.495867904,1.000762212919214,96.07808747495169
10.509090816,1.0010771015532622,95.42313922789376
10.522313728,1.001345150605682,94.7644780606045
10.535537664,1.0015542389280858,94.10274280410765
10.548760576,1.0016951471034032,93.43869855366378
10.561983488,1.0017609875543712,92.77317835042987
10.5752064,1.0017489359188525,92.10714097551717
10.588429312,1.0016590609616798,91.44151995257765
10.601653248,1.0014951204027513,90.7772405150871
10.61487616,1.001263851531745,90.11512463816679
10.628099072,1.0009755487325493,89.45598212709533
10.641321984,1.0006425085333823,88.80038798559525
10.65454592,1.0002794929943644,88.14885177842709
10.667768832,0.9999023660808225,87.5016180917433
10.680991744,0.9995279521258038,86.85880565648931
10.694214656,0.9991727956198473,86.22026613098114
10.707437568,0.9988528304977986,85.5856820654103
10.720661504,0.9985824829487564,84.95456510662723
10.733884416,0.998373903470851,84.32624396668969
10.747107328,0.9982367454235379,83.69988176756534
10.76033024,0.9981772870573998,83.07462093305429
10.773554176,0.9981986029251315,82.44948386806593
10.786777088,0.9983000689134289,81.82346422940154
10.8,0.9984773752781403,81.19565665889338
10.813222912,0.9987229535266328,80.56510735135204
10.826445824,0.9990261918785371,79.93112128616033
10.83966976,0.9993736219839171,79.29302716878152
10.852892672,0.9997501557093736,78.65039688798208
10.866115584,1.0001389377307364,78.00294625693358
10.879338496,1.0005231060394513,77.35066247040525
10.892562432,1.0008850782491676,76.69369741559913
10.905785344,1.0012090883999958,76.03238702288651
10.919008256,1.001480510851349,75.36728998962668
10.932231168,1.001687102168053,74.69912359016763
10.94545408,1.0018194729955756,74.02870135690286
10.958678016,1.0018714398992592,73.35697148140822
10.971900928,1.0018404448370672,72.6848886288406
10.98512384,1.001727410040634,72.01348323607793
10.998346752,1.001537005832951,71.34370941847169
11.011570688,1.0012774440881178,70.67644489483028
11.0247936,1.0009596617732106,70.01246761709038
11.038016512,1.0005977001836555,69.35244624979985
11.051239424,1.0002073079336593,68.6967814685056
11.064462336,0.9998056979096364,68.04576123492842
11.077686272,0.9994107592276179,67.39941726753496
11.090909184,0.9990399065403442,66.75757858345852
11.104132096,0.9987099021861618,66.11988678712585
11.117355008,0.9984356004147107,65.48574530696231
11.130578944,0.998229321768599,64.85439456148897
11.143801856,0.9981009121260817,64.22500258615653
11.157024768,0.9980561095197603,63.59653899099093
11.17024768,0.9980974563632891,62.967989960075506
11.183470592,0.9982234505396084,62.33830702523769
11.196694528,0.9984289044585056,61.70649703454556
11.20991744,0.9987048431417528,61.0716296403198
11.223140352,0.9990394216297439,60.432926848003696
11.236363264,0.9994178225599861,59.78974808078729
11.2495872,0.9998235678071112,59.14166648563319
11.262810112,1.0002386566752601,58.48842812508038
11.276033024,1.0006446082919511,57.83006399713862
11.289255936,1.0010234919259842,57.16675515266523
11.302478848,1.0013582831848382,56.4989475833358
