freq,mag,phase
6.0,1.0004294400247231,155.87985238706105
6.002288128,1.0004359416242412,155.71969593222096
6.004576768,1.0004140771801722,155.5596884337369
6.006864896,1.0003658273957936,155.40019606261455
6.009153536,1.0002945202937077,155.2416220122591
6.011441664,1.0002044107073895,155.0842235233068
6.013729792,1.000101211020022,154.92826158152945
6.016018432,0.9999916674975626,154.77387734656025
6.01830656,0.9998824782486907,154.62111553998218
6.0205952,0.9997807348782609,154.4698978565272
6.022883328,0.9996927744949083,154.32010817435042
6.025171456,0.9996242518682311,154.17145889671733
6.027460096,0.9995796412502845,154.02369387766456
6.029748224,0.9995615802307658,153.87642280539677
6.032036864,0.9995713727903006,153.72919613598387
6.034324992,0.9996085036723124,153.58167692007657
6.03661312,0.999670400149692,153.43348062606847
6.03890176,0.9997532937921649,153.28422881628302
6.041189888,0.9998519528683005,153.1336994287895
6.043478016,0.9999600234439768,152.98170813521835
6.045766656,1.0000706819127012,152.82813834267205
6.048054784,1.0001769759319474,152.67301273702142
6.050343424,1.00027229160472,152.51646748981477
6.052631552,1.0003502336452739,152.3586667621321
6.05491968,1.0004060344100605,152.19993435442123
6.05720832,1.000436185575773,152.0405865144865
6.059496448,1.0004386056789016,151.88103100737177
6.061785088,1.0004133169014289,151.72167944508942
6.064073216,1.000361737390107,151.56290195686555
6.066361344,1.0002872770514233,151.4050739152975
6.068649984,1.0001944854205749,151.2484748925551
6.070938112,1.000089341866478,151.09334673726633
6.073226752,0.9999783542644481,150.9398128816733
6.07551488,0.9998687340073418,150.78791265024674
6.077803008,0.99976734977438,150.63758489762182
6.080091648,0.9996807558957201,150.48863242136756
6.082379776,0.9996142796402109,150.3408303569533
6.084668416,0.9995722282025635,150.19384322094083
6.086956544,0.9995574482175608,150.04732511383722
6.089244672,0.9995706893887105,149.9008046789232
6.091533312,0.9996110688116631,149.75397310220043
6.09382144,0.9996763962633474,149.6063505404481
6.09611008,0.9997622277290955,149.45769022291148
6.098398208,0.999863220697237,149.30768693973607
6.100686336,0.9999729004090557,149.15618666692725
6.102974976,1.0000845568333696,149.00309011875248
6.105263104,1.0001907258039444,148.8484466118621
6.107551232,1.0002850036954458,148.6923578921368
6.109839872,1.0003612956851533,148.53506102631607
6.112128,1.0004145947098886,148.3768529639827
6.11441664,1.0004417669800678,148.21807565486412
6.116704768,1.0004409026854382,148.0591632303675
6.118992896,1.000412062803992,147.90045717681866
6.121281536,1.0003569654445406,147.74238562324427
6.123569664,1.000279401692122,147.5853108038028
6.125858304,1.0001839814178,147.42953692541823
6.128146432,1.0000768787838459,147.2752078180812
6.13043456,0.9999646959775425,147.1225695055414
6.1327232,0.9998546513605997,146.9715383675196
6.135011328,0.9997538695777769,146.8220636662368
6.137299968,0.9996685807956897,146.67397890457926
6.139588096,0.9996043128163896,146.5270114145069
6.141876224,0.9995651551144954,146.3808348819041
6.144164864,0.9995535726227517,146.23503605553017
6.146452992,0.9995703004020471,146.08924056353334
6.148741632,0.999614277814008,145.943031162499
6.15102976,0.9996829091062397,145.79603476541203
6.153317888,0.9997716580705969,145.6479182554675
6.155606528,0.9998749210820026,145.4984341864836
6.157894656,0.9999862687485889,145.34743436427948
6.160183296,1.000098482741635,145.1947924225629
6.162471424,1.0002046031015701,145.0406327094277
6.164759552,1.0002977876334425,144.88502227845498
6.167048192,1.0003721767452634,144.72822706183248
6.16933632,1.0004229641013342,144.57054979799545
6.17162496,1.0004469889449177,144.4123471748902
6.173913088,1.0004426812882365,144.25401690574097
6.176201216,1.0004103093475616,144.0959845211327
6.178489856,1.0003518900045354,143.93865928637112
6.180777984,1.000271076812519,143.78232925736734
6.183066112,1.000173076963121,143.62736139190463
6.185354752,1.0000638764347907,143.47391144699534
6.18764288,0.9999506223198479,143.3220876371673
6.18993152,0.9998404905182167,143.1719535044634
6.192219648,0.999740273907327,143.02333851385427
6.194507776,0.9996565210397456,142.87611976106896
6.196796416,0.9995946376497252,142.72997263907166
6.199084544,0.9995583929293079,142.58459580029907
6.201373184,0.9995500914930463,142.4395454079668
6.203661312,0.9995702757506669,142.29444844014267
6.20594944,0.999618022951278,142.1488726333414
6.20823808,0.9996899019524778,142.0024862820563
6.210526208,0.9997814707974886,141.854890256659
6.212814848,0.9998869920753568,141.70592573192812
6.215102976,0.9999999289995777,141.5553971865159
6.217391104,1.0001128084872368,141.40323546720674
6.219679744,1.0002186068069647,141.24950500975015
6.221967872,1.0003106836256592,141.09436292654513
6.224256512,1.000383028041996,140.938067278916
6.22654464,1.0004310538425616,140.78091450969313
6.228832768,1.0004520236104595,140.62329633656708
6.231121408,1.0004442067411699,140.465591798984
6.233409536,1.0004082041943907,140.30822659991793
6.235698176,1.0003463582316332,140.15160294164158
6.237986304,1.000262249162831,139.9960720641606
6.240274432,1.0001616183515147,139.84192117343355
6.242563072,1.00005058045308,139.68929636276954
6.2448512,0.9999364019217701,139.53837382794498
6.24713984,0.999826015674614,139.38907648945505
6.249427968,0.9997266341175575,139.24137149130357
6.251716096,0.9996446424754982,139.09496723406443
6.254004736,0.9995850202387051,138.9496613957948
6.256292864,0.9995516581089097,138.80504805755743
6.258580992,0.9995469321962782,138.66073892948543
6.260869632,0.9995708410384474,138.51630967776816
6.26315776,0.9996219789418643,138.37137489820765
6.2654464,0.9996973215344698,138.22554912599531
6.267734528,0.999791815680237,138.07850261180278
6.270022656,0.9998996597837472,137.9300358244729
6.272311296,1.000013804265833,137.7799712888563
6.274599424,1.0001273314793233,137.6282480024565
6.276888064,1.0002327365096426,137.4750100543959
6.279176192,1.000323510298445,137.32034847789288
6.28146432,1.0003938826716776,137.16453444230274
6.28375296,1.0004391752502746,137.0079102380845
6.286041088,1.000456639110507,136.85083785223694
6.288329728,1.0004451393420735,136.6937542244182
6.290617856,1.0004054671548392,136.5370683102958
6.292905984,1.000340093866917,136.38116308642202
6.295194624,1.0002530128915714,136.2264068394015
6.297482752,1.0001497558600505,136.07306022911305
6.299771392,1.000036925796866,135.92132136571067
6.30205952,0.999921765531639,135.7712157885518
6.304347648,0.9998114762440474,135.62279044435365
6.306636288,0.9997129784353465,135.47594698184938
6.308924416,0.9996326480647881,135.33042455484693
6.311213056,0.999575642982867,135.1859274607095
6.313501184,0.9995455301521957,135.04208316699328
6.315789312,0.9995442580868548,134.89849674527446
6.318077952,0.9995717823034468,134.7547472688497
6.32036608,0.9996266978455864,134.61043261800683
6.322654208,0.9997053084437967,134.46516808147078
6.324942848,0.9998026656204361,134.31864100432492
6.327230976,0.9999126708824649,134.1706461616486
6.329519616,1.000028276705991,134.02103912368122
6.331807744,1.0001421357312046,133.8697699683791
6.334095872,1.0002470450184882,133.71698489464157
6.336384512,1.000336266636492,133.56276584172934
6.33867264,1.0004043619192362,133.40743878129675
6.34096128,1.0004468014924024,133.25132529385192
6.343249408,1.0004609254274133,133.09483210190962
6.345537536,1.0004457146662666,132.93837973699118
6.347826176,1.0004023624855205,132.78236417753175
6.350114304,1.0003332857848164,132.62719259651172
6.352402944,1.000243156789022,132.47320247051823
6.354691072,1.000137401151593,132.32066412620762
6.3569792,1.0000229219747294,132.16974461251206
6.35926784,0.9999068447580451,132.02052423797082
6.361555968,0.9997966178194958,131.8730016763679
6.363844608,0.9996991718238286,131.72698234683085
6.366132736,0.9996207611434842,131.58231189500466
6.368420864,0.9995664303065168,131.4386196081764
6.370709504,0.9995394901733772,131.29552356009492
6.372997632,0.9995417660675844,131.15267152003622
6.375286272,0.9995732683451226,131.00958851977077
6.3775744,0.9996318982212703,130.86586326033455
6.379862528,0.999713873620825,130.72113401429698
6.382151168,0.9998140808256633,130.57513264126894
6.384439296,0.9999259873197466,130.42761056858987
6.386727936,1.0000429453109798,130.27845773596042
6.389016064,1.000157176266641,130.1276248175826
6.391304192,1.0002614418594624,129.97523732790918
6.393592832,1.0003491929927801,129.82150227375658
6.39588096,1.0004147967690733,129.66663474479705
6.398169088,1.0004542038749569,129.51103930380697
6.400457728,1.000464881870885,129.3551267701423
6.402745856,1.0004458808360446,129.19927710153019
6.405034496,1.0003985875805195,129.0439423108723
6.407322624,1.0003261114545188,128.8894918244532
6.409610752,1.0002328127208475,128.73627153584053
6.411899392,1.0001245067425584,128.58452591132817
6.41418752,1.0000083636816344,128.43446142305797
6.41647616,0.9998915301815899,128.28609707453896
6.418764288,0.9997815368172962,128.13943454821342
6.421052416,0.9996853089948423,127.99430776302867
6.423341056,0.9996088953730599,127.85042628892919
6.425629184,0.9995573923285984,127.70753460718431
6.427917824,0.9995338566285239,127.56521330136944
6.430205952,0.9995399179506186,127.42305020019687
6.43249408,0.9995751293032027,127.28060759541918
6.43478272,0.9996374290512317,127.13746105546159
6.437070848,0.9997227369128153,126.99329268371385
6.439359488,0.9998256832503886,126.84777627059796
6.441647616,0.9999398437950334,126.70070275307236
6.443935744,1.000057941327162,126.55197391049884
6.446224384,1.000172242550161,126.40157101684842
6.448512512,1.0002757572995975,126.24960902095896
6.450801152,1.0003618817551951,126.09629979830324
6.45308928,1.0004250417082048,125.94191198522165
6.455377408,1.0004612163401752,125.78683787731187
6.457666048,1.0004681748125248,125.6314871062504
6.459954176,1.0004454304632393,125.47624370655316
6.462242816,1.0003943441139158,125.32156406465434
6.464530944,1.0003182070097159,125.16783249653746
6.466819072,1.0002218097597795,125.01539752686051
6.469107712,1.0001112108686006,124.86449947560048
6.47139584,0.999993476636135,124.7152536499426
6.473683968,0.9998760653419968,124.56777184371259
6.475972608,0.9997663654095403,124.42193640342101
6.478260736,0.9996714596596081,124.27764267675407
6.480549376,0.9995972712038865,124.13461712730887
6.482837504,0.9995486882965838,123.99247889640809
6.485125632,0.999528619764344,123.85090787544367
6.487414272,0.999538492501184,123.70941022636173
6.4897024,0.9995776673116161,123.56757889035585
6.49199104,0.9996437069763773,123.42502405961345
6.494279168,0.9997324245176631,123.28135777549942
6.496567296,0.9998381257612018,123.13632642406213
6.498855936,0.9999542866934731,122.98967742163245
6.501144064,1.0000732058591384,122.8413543084407
6.503432704,1.0001876884682535,122.69135907655678
6.505720832,1.00029033013027,122.53982260962762
6.50800896,1.0003744940917207,122.38692326253873
6.5102976,1.000435095935911,122.23299174838523
6.512585728,1.0004679205022322,122.07844683498253
6.514874368,1.0004712276931442,121.92362941068986
6.517162496,1.0004444914479023,121.76901047291244
6.519450624,1.0003895516902264,121.61502224767605
6.521739264,1.0003098067077287,121.46199674667562
6.524027392,1.0002102675071531,121.31035381946081
6.526316032,1.0000973634842318,121.16022946162457
6.52860416,0.999978104097688,121.0118147101673
6.530892288,0.999860154239929,120.86519787195945
6.533180928,0.9997509590370522,120.7202245996488
6.535469056,0.9996575526732648,120.57675576945304
6.537757184,0.9995856162613578,120.43452830356705
6.540045824,0.9995401310832364,120.29318851362038
6.542333952,0.9995236765204135,120.15230542614984
6.544622592,0.99953739437735,120.01148373825546
6.54691072,0.9995806887255853,119.8702582571967
6.549198848,0.9996504493966105,119.7282544348132
6.551487488,0.9997425089002228,119.58509343500441
6.553775616,0.9998510284379564,119.44049565533092
6.556064256,0.9999689849674029,119.29429639942886
6.558352384,1.0000889422550192,119.14633731952668
6.560640512,1.000203320003311,118.99674042659542
6.562929152,1.0003049255746084,118.84559460626735
6.56521728,1.0003872549077681,118.69312172385429
6.56750592,1.0004448793132452,118.53966397744145
6.569794048,1.0004744774673096,118.38560334053818
6.572082176,1.0004738061686609,118.23132677776964
6.574370816,1.0004431500546258,118.07731052782016
6.576658944,1.0003842829782588,117.92398310436272
6.578947584,1.000300818252051,117.77166814399013
6.581235712,1.000198403539546,117.6207811784944
6.58352384,1.000083124763261,117.4714798721275
6.58581248,0.9999625558489974,117.32390783758458
6.588100608,0.9998441359393109,117.17811872554188
6.590389248,0.9997356020761923,117.03397187480951
6.592677376,0.9996437205978089,116.89134662885995
6.594965504,0.9995743502175511,116.74992150820387
6.597254144,0.9995318469423017,116.60931405554692
6.599542272,0.9995192213931929,116.4691348029675
6.601830912,0.9995369694856735,116.32895096937685
6.60411904,0.9995843021600659,116.18833414975728
6.606407168,0.9996578299450455,116.04682980059769
6.608695808,0.9997531532878092,115.90416583949425
6.610983936,0.9998643062483418,115.7600253483502
6.613272064,0.9999841250989651,115.6141908912445
6.615560704,1.0001049704488627,115.4666328936231
6.617848832,1.0002191638516602,115.31740730945135
6.620137472,1.0003195865600691,115.16664252982308
6.6224256,1.0003996690665384,115.01458090695117
6.624713728,1.0004545327005812,114.86156120442097
6.627002368,1.0004804879327327,114.70796858986323
6.629290496,1.000475920520086,114.55424965483891
6.631579136,1.0004411341852113,114.40084662304821
6.633867264,1.0003782615339283,114.24813765935322
6.636155392,1.0002913337450319,114.09657912356948
6.638444032,1.0001857810863168,113.94642614937968
6.64073216,1.0000683502406438,113.79791981219279
6.6430208,0.9999464582602748,113.6511944014996
6.645308928,0.9998278755233451,113.5062155226522
6.647597056,0.9997199967757913,113.36293680261072
6.649885696,0.9996298426020848,113.22109133686246
6.652173824,0.9995631077769347,113.0804403264679
6.654462464,0.999524102430811,112.940589717127
6.656750592,0.9995151965429674,112.8010941933358
6.65903872,0.9995370835282552,112.6615349977229
6.66132736,0.9995882763070235,112.52146782432075
6.663615488,0.9996657810923765,112.3805053887503
6.665904128,0.9997644931011781,112.23826941617733
6.668192256,0.9998782029985502,112.09451317469211
6.670480384,0.9999997098513421,111.949049194088
6.672769024,1.000121251485724,111.8018761767828
6.675057152,1.000235145669621,111.65300851786961
6.677345792,1.0003341834935278,111.50260852259173
6.67963392,1.000412085814919,111.35095541944226
6.681922048,1.0004638143114475,111.19834506996004
6.684210688,1.0004860628820438,111.04524091291046
6.686498816,1.0004775143680185,110.89204234159982
6.688786944,1.000438573659499,110.73923665510257
6.691075584,1.0003717744880014,110.58720355639147
6.693363712,1.0002812423166016,110.43634548955657
6.695652352,1.0001727170116763,110.28693548814822
6.69794048,1.0000531661938055,110.13922169416095
6.700228608,0.999930125057015,109.99331310067927
6.702517248,0.9998112506916244,109.84916425514623
6.704805376,0.9997043884615643,109.7066815224538
6.707094016,0.999616048940517,109.56564915798201
6.709382144,0.9995521412965245,109.42576101624725
6.711670272,0.9995165615544999,109.2865926474171
6.713958912,0.9995115481660816,109.14777958376345
6.71624704,0.9995376446080905,109.00882340586823
6.71853568,0.9995930216941963,108.8693103235302
6.720823808,0.9996742723570126,108.72882347550072
6.723111936,0.9997762282408926,108.58701753174533
6.725400576,0.9998924073069093,108.44364279762705
6.727688704,1.0000155398563166,108.29856259462855
6.729977344,1.0001377354503043,108.15172016978065
6.732265472,1.0002512225702715,108.00318318689533
6.7345536,1.0003487444790593,107.85314115142374
6.73684224,1.0004242689579579,107.70184733941028
6.739130368,1.0004727392217914,107.5496793699098
6.741419008,1.0004912619416206,107.39704297082142
6.743707136,1.0004786087202109,107.24437531035709
6.745995264,1.0004353966321944,107.09214667244129
6.748283904,1.0003646158252726,106.94076348379136
6.750572032,1.0002705446862632,106.79062135085458
6.75286016,1.0001591048596647,106.64194685743914
6.7551488,1.0000374813633945,106.49503021576079
6.757436928,0.9999132931490643,106.34990888936802
6.759725568,0.9997945756787998,106.20656098633151
6.762013696,0.9996887377942001,106.0648926073931
6.764301824,0.9996025044128117,105.92463539807521
6.766590464,0.9995414392378837,105.78548028796001
6.768878592,0.9995094245414085,105.64703189542895
6.771167232,0.9995084934856691,105.50884578849828
6.77345536,0.9995387918511467,105.37046880235107
6.775743488,0.9995983731282491,105.23148533424516
6.778032128,0.999683418750054,105.09145938564698
6.780320256,0.9997887317506948,104.95005136412657
6.782608896,0.9999074281374604,104.80704793862054
6.784897024,1.0000319801813027,104.66228464656541
6.787185152,1.000154556014872,104.51576354220278
6.789473792,1.0002674714111992,104.36755567946153
6.79176192,1.0003634032915605,104.21783909458028
6.79405056,1.000436177508084,104.06691628582983
6.796338688,1.0004815036329437,103.91515051826576
6.798626816,1.0004960708604906,103.76296042128861
6.800915456,1.000479126097766,103.61083476632626
6.803203584,1.0004317540993164,103.45918100099905
6.805492224,1.0003569226846485,103.3084369458789
6.807780352,1.0002592577172467,103.15895870846843
6.81006848,1.000145044384839,103.01104762971335
6.81235712,1.0000214130906908,102.86488176096367
6.814645248,0.9998962639674356,102.72055183977433
6.816933888,0.9997776888574657,102.57803345513923
6.819222016,0.9996730574061095,102.43714900306335
6.821510144,0.9995890273957284,102.29765729801652
6.823798784,0.9995309754459297,102.15922783023862
6.826086912,0.999502641214898,102.02145400258499
6.82837504,0.999505967701746,101.88387073118504
6.83066368,0.9995405275901913,101.74607719226935
6.832951808,0.999604268111467,101.6075563270234
6.835240448,0.9996932051109697,101.46795831259307
6.837528576,0.9998016420523144,101.32694562053658
6.839816704,0.9999227434722001,101.1842879859533
6.842105344,1.0000487467256467,101.03985884193517
6.844393472,1.0001717310029083,100.89361704312878
6.846682112,1.000283845347858,100.7456994265706
6.84897024,1.0003779157957806,100.59630341294778
6.851258368,1.000448039636528,100.4457260858181
6.853547008,1.0004897502539298,100.29436745697696
6.855835136,1.0005003679459192,100.14261937447971
6.858123776,1.0004791562744313,99.9909962737239
6.860411904,1.0004273156082726,99.83990447688872
6.862700032,1.0003484211202467,99.68980254618
6.864988672,1.0002472609904782,99.54101695647478
6.8672768,1.0001303070714687,99.3938323006612
6.86956544,1.0000048848811813,99.2484302828063
6.871853568,0.9998789414207602,99.10488478035693
6.874141696,0.9997605649564795,98.96313208613091
6.876430336,0.9996572191551066,98.82303318525706
6.878718464,0.9995755907917806,98.68428735765431
6.881007104,0.9995208334065534,98.5465670085352
6.883295232,0.999496441539707,98.40944257463893
6.88558336,0.9995038852244166,98.27246664823886
6.887872,0.9995428557594931,98.13517329346779
6.890160128,0.9996108629704007,97.99713197165927
6.892448768,0.9997035868672116,97.85794501158729
6.894736896,0.9998152471575767,97.71727792666185
6.897025024,0.9999384959281599,97.5749469217451
6.899313664,1.0000658565009657,97.43077144178108
6.901601792,1.0001890183036544,97.28482350891156
6.90388992,1.0003002943447523,97.13718498713055
6.90617856,1.0003923201014382,96.9880892902222
6.908466688,1.0004596681562021,96.83784953385988
6.910755328,1.0004976575296451,96.68684504436318
6.913043456,1.0005040985508564,96.53556281164266
6.915331584,1.0004785209217142,96.3844325474592
6.917620224,1.0004223710539382,96.2339248685597
6.919908352,1.0003393984750302,96.08441102578298
6.922196992,1.0002347381406018,95.93630634511476
6.92448512,1.0001150038338242,95.789857953654
6.926773248,0.9999877828656498,95.64521190823356
