freq,mag,phase
6.0,1.000630036738294,-166.75539233912647
6.002287104,1.0006678354019163,-166.91367903232546
6.004574208,1.000664152293628,-167.07218413135018
6.006861312,1.0006186047291339,-167.23033873928128
6.009147904,1.0005340798172124,-167.38756843513394
6.011435008,1.0004159039914124,-167.54331577054592
6.013722112,1.0002714365989709,-167.69714659638245
6.016009216,1.0001099413582222,-167.84875875104478
6.01829632,0.9999415120253028,-167.99796728833914
6.020583424,0.9997769640477431,-168.14477489915924
6.022870016,0.9996265129015793,-168.2892779210368
6.02515712,0.9994998588099927,-168.4317855417999
6.027444224,0.9994049525515807,-168.57264876944336
6.029731328,0.9993478462410094,-168.7123941425978
6.032018432,0.9993322649718303,-168.85161272113396
6.034305536,0.9993592209164298,-168.9909179549081
6.036592128,0.9994268319980435,-169.13091226137843
6.038879232,0.99953102772769,-169.27214001900387
6.041166336,0.9996651676603011,-169.4150911016974
6.04345344,0.9998206734853091,-169.56015390191456
6.045740544,0.999987821573258,-169.70753248906115
6.048027648,1.0001558743368901,-169.85736748073097
6.05031424,1.000314474313734,-170.0095745146541
6.052601344,1.0004533320405264,-170.16395009423223
6.054888448,1.0005637068966582,-170.32011127567006
6.057175552,1.0006386234983173,-170.477652905842
6.059462656,1.0006733618743446,-170.6359312800009
6.06174976,1.0006658037507228,-170.7944307583684
6.064036352,1.0006160753503577,-170.9525315472238
6.066323456,1.0005275125198627,-171.10960891122767
6.06861056,1.0004058432734135,-171.26513283171303
6.070897664,1.0002585144823937,-171.41874802063637
6.073184768,1.0000948274453068,-171.5700973948094
6.075471872,0.9999253330625003,-171.7190124102334
6.077758464,0.999760574867568,-171.86550352314373
6.080045568,0.9996111013426513,-172.00967410251718
6.082332672,0.9994862244735553,-172.15187029174194
6.084619776,0.9993940657594607,-172.2925063014229
6.08690688,0.9993405133634956,-172.43202800094014
6.089193984,0.9993287927185259,-172.5710792121664
6.091481088,0.9993597839262124,-172.71029873733428
6.09376768,0.999431491716919,-172.8502340214451
6.096054784,0.9995394576781876,-172.9914781333991
6.098341888,0.9996768152667466,-173.1345077595469
6.100628992,0.9998348292181606,-173.27967413867452
6.102916096,1.000003619765475,-173.42718978295255
6.1052032,1.000172401702019,-173.57720652589856
6.107489792,1.0003304538654465,-173.72955437320337
6.109776896,1.000467843471139,-173.88401938478552
6.112064,1.0005758544384784,-174.04029873757844
6.114351104,1.0006476393607255,-174.19788936914514
6.116638208,1.000678645359975,-174.35622685178834
6.118925312,1.0006669057209785,-174.51467781916458
6.121211904,1.0006131146842734,-174.67266453617773
6.123499008,1.0005206692413042,-174.82956883467767
6.125786112,1.0003953756610393,-174.98491589772934
6.128073216,1.0002451237535666,-175.13825359919045
6.13036032,1.000079447707105,-175.28929567329084
6.132647424,0.9999088328265974,-175.43788991888795
6.134934016,0.9997440896609205,-175.58406285136257
6.13722112,0.9995955088614729,-175.72792013549528
6.139508224,0.999472711323356,-175.86978017652385
6.141795328,0.9993834706525485,-176.01014860022593
6.144082432,0.9993332101837425,-176.1494684164077
6.146369536,0.999325575458966,-176.2883416631728
6.148656128,0.9993607147722676,-176.42743948081332
6.150943232,0.9994365517267806,-176.56732934143832
6.153230336,0.999548322399838,-176.70855968077595
6.15551744,0.9996888728649977,-176.85166026107765
6.157804544,0.9998493646658706,-176.9968930900901
6.160091648,1.0000197436211,-177.14454097014263
6.162378752,1.00018894866784,-177.29466279330967
6.164665344,1.0003465251178036,-177.44718016724232
6.166952448,1.0004824176372589,-177.60178936545367
6.169239552,1.0005878761289422,-177.75812619480024
6.171526656,1.0006565153210973,-177.9157600692604
6.17381376,1.000683770969041,-178.07407096338866
6.176100864,1.0006678060450331,-178.23246930979755
6.178387456,1.000609899918949,-178.39034210331508
6.18067456,1.0005133522457463,-178.54708952789917
6.182961664,1.0003846462472208,-178.70220880652465
6.185248768,1.0002315857833073,-178.85523631595638
6.187535872,1.0000638888830526,-179.00599305280093
6.189822976,0.9998922194881656,-179.15420988665082
6.192109568,0.9997275274874622,-179.3000219118179
6.194396672,0.999580082243083,-179.4435260256406
6.196683776,0.9994593031160808,-179.58511222369646
6.19897088,0.9993728944410855,-179.72514930135998
6.201257984,0.9993263526840619,-179.86422736929657
6.203545088,0.9993226541371224,179.99705470165952
6.20583168,0.999362076984573,179.85808926664137
6.208118784,0.9994420230063306,179.71827485805625
6.210405888,0.9995576122521003,179.57702342540512
6.212692992,0.9997012956925853,179.4339261247056
6.214980096,0.9998641659132772,179.28858497269255
6.2172672,1.0000358991692002,179.1408322432182
6.219553792,1.000205641845198,178.99059074567694
6.221840896,1.000362493458364,178.83796660561248
6.224128,1.0004968926337832,178.68325245556062
6.226415104,1.0005997911521518,178.52680585670163
6.228702208,1.0006650840400224,178.36916252017915
6.230989312,1.0006883466102277,178.21086530591984
6.233275904,1.000668333737516,178.0525457264741
6.235563008,1.000606129931464,177.8948221183239
6.237850112,1.00050581061163,177.73829953778292
6.240137216,1.0003734490801413,177.58346936386687
6.24242432,1.000217496265859,177.43072091311228
6.244711424,1.0000479822958883,177.28033090899123
6.246998528,0.9998754277531313,177.1324456495084
6.24928512,0.9997106878106362,176.98702531980905
6.251572224,0.9995644663472432,176.84383446044026
6.253859328,0.9994459439282984,176.70260131186674
6.256146432,0.9993625790608135,176.5628707733048
6.258433536,0.9993196878211011,176.4240397432163
6.26072064,0.9993200431299527,176.28552489467864
6.263007232,0.9993636229767537,176.1467169024296
6.265294336,0.9994477565351567,176.00696152031253
6.26758144,0.9995670659939859,175.8657548584547
6.269868544,0.9997139746047166,175.72260379507682
6.272155648,0.9998791963474167,175.57719315147537
6.274442752,1.0000524289150985,175.4293322874828
6.276729344,1.0002224585905,175.27898719112807
6.279016448,1.0003786674592414,175.12628777399445
6.281303552,1.0005111482234768,174.971466602719
6.283590656,1.000611470825356,174.81496312275019
6.28587776,1.0006733420831575,174.65731876655977
6.288164864,1.0006927590218064,174.4990712711279
6.290451456,1.0006685563645759,174.34085498184717
6.29273856,1.000602115617969,174.18328390094968
6.295025664,1.0004977171939904,174.02699382894338
6.297312768,1.0003618497733457,173.87243595777363
6.299599872,1.0002032556175309,173.72000398164664
6.301886976,1.0000318491347289,173.56998400375463
6.304173568,0.999858371201509,173.4224723664123
6.306460672,0.9996940158930695,173.2774332522967
6.308747776,0.999548983980329,173.13462994506878
6.31103488,0.9994327334600683,172.99377926426823
6.313321984,0.9993524575231613,172.85434440092658
6.315609088,0.9993132378425253,172.7157574637078
6.317896192,0.9993177943194275,172.57745110323737
6.320182784,0.9993656611636915,172.43877107786494
6.322469888,0.9994539943615003,172.29912436462973
6.324756992,0.9995770192924878,172.1579522862318
6.327044096,0.9997271107930606,172.01477693772964
6.3293312,0.9998945905308868,171.86929918626623
6.331618304,1.000069216770586,171.7213647655718
6.333904896,1.000239537056607,171.57092203342248
6.336192,1.0003948587598297,171.41811042696676
6.338479104,1.0005255205526862,171.2632098853841
6.340766208,1.0006231760703852,171.10670123497698
6.343053312,1.0006814231407644,170.9490443345376
6.345340416,1.0006968803033094,170.7908547704602
6.347627008,1.0006682567028524,170.63277523545165
6.349914112,1.0005977033257538,170.47540575837624
6.352201216,1.0004892458086503,170.31934929152814
6.35448832,1.0003500228744886,170.16508451761408
6.356775424,1.0001886570668566,170.01301655508598
6.359062528,1.0000154242559316,169.86337200441235
6.36134912,0.9998411781058231,169.7162663692848
6.363636224,0.9996770894921251,169.57162383028756
6.365923328,0.9995335169643613,169.4292392362596
6.368210432,0.9994195231960308,169.28872991950905
6.370497536,0.9993425033025569,169.1496022577286
6.37278464,0.9993072108389499,169.0113472912464
6.375071232,0.9993159493614818,168.8732243162473
6.377358336,0.999368156137345,168.73470795945605
6.37964544,0.9994606445339216,168.5951454686919
6.381932544,0.9995873771096637,168.45401455043074
6.384219648,0.9997406313357226,168.31082738005472
6.386506752,0.9999104111982126,168.16530555977468
6.388793344,1.0000861493065571,168.0172850499791
6.391080448,1.0002565819642881,167.86674210518365
6.393367552,1.0004110378749151,167.7138620964194
6.395654656,1.0005398150277205,167.55892871420065
6.39794176,1.0006345352837875,167.4023835604451
6.400228864,1.0006892171454953,167.24476189309794
6.402515968,1.0007005383698027,167.08663798203972
6.40480256,1.0006676778940753,166.9286938070621
6.407089664,1.0005927016201497,166.77154634443738
6.409376768,1.0004804352505368,166.6157551974893
6.411663872,1.000337554174625,166.4617972622102
6.413950976,1.000173549464212,166.31010598589427
6.41623808,0.9999986210464775,166.16085271618644
6.418524672,0.9998236786206293,166.01417302010873
6.420811776,0.9996601078059644,165.8699705339272
6.42309888,0.9995179564048484,165.727976903012
6.425385984,0.9994065736265616,165.58782198639923
6.427673088,0.9993327417155519,165.449069506607
6.429960192,0.999301360041014,165.3110548536665
6.432246784,0.9993144189209582,165.17319636864886
6.434533888,0.9993709638529966,165.0348517814389
6.436820992,0.9994676185934975,164.8954048267608
6.439108096,0.9995982884531377,164.7542733378838
6.4413952,0.9997544348367491,164.6111066904263
6.443682304,0.9999264365704111,164.46553156022156
6.445968896,1.0001032946547432,164.31746534889683
6.448256,1.0002739185085008,164.16686688394742
6.450543104,1.000427392680184,164.01389147852933
6.452830208,1.0005540004048932,163.85892437725118
6.455117312,1.000645821340321,163.7023558805951
6.457404416,1.000696777034915,163.54478996332796
6.459691008,1.0007040715827198,163.38678285279946
6.461978112,1.0006667080271332,163.22898763883035
6.464265216,1.0005874529606558,163.07205152671378
6.46655232,1.0004710943292154,162.91654912184214
6.468839424,1.0003249134256902,162.762958286614
6.471126528,1.000158309007032,162.6116441625905
6.473413632,0.9999816361190417,162.46281580977055
6.475700224,0.9998062179778229,162.31657632897057
6.477987328,0.99964306269807,162.17277708589754
6.480274432,0.999502634026023,162.03120029396553
6.482561536,0.9993936313400766,161.89146690136155
6.48484864,0.9993232392169737,161.75303023907136
6.487135744,0.9992958063555301,161.6153327796352
6.489422336,0.9993132352497923,161.47771626878372
6.49170944,0.9993742311713026,161.33954058538356
6.493996544,0.9994751093278611,161.20018314639634
6.496283648,0.9996093058125716,161.05913982493135
6.498570752,0.9997686692912982,160.91595140692095
6.500857856,0.9999427830424598,160.77036440849093
6.503144448,1.0001207313844824,160.6222298066987
6.505431552,1.0002912737949283,160.47156245838363
6.507718656,1.0004436872874718,160.31853126001678
6.51000576,1.00056815630069,160.16356233270767
6.512292864,1.0006568661755129,160.00700761437628
6.514579968,1.0007042048292176,159.84947391394124
6.51686656,1.0007069877916515,159.6915833771973
6.519153664,1.0006654712226113,159.53397558584302
6.521440768,1.0005816908566738,159.3772913069058
6.523727872,1.0004613040916757,159.22207912441036
6.526014976,1.0003117718214225,159.06886406918244
6.52830208,1.0001425862685973,158.9179361763477
6.530588672,0.9999642414715808,158.7695309347216
6.532875776,0.999788326849779,158.62375269490948
6.53516288,0.9996258174742544,158.48040904937787
6.537449984,0.999487106341552,158.33927383757992
6.539737088,0.9993808706926517,158.19993705000772
6.542024192,0.9993139181149667,158.06188557545266
6.544310784,0.9992906870003251,157.92449350264556
6.546597888,0.999312364300411,157.78708435211476
6.548884992,0.9993779849776685,157.64910070607147
6.551172096,0.9994829478528793,157.50988521327454
6.5534592,0.9996210322798902,157.36889250314385
6.555746304,0.9997831770602191,157.2257018017525
6.558033408,0.9999594524038022,157.0800686761239
6.56032,1.0001385047779972,156.93188915638427
6.562607104,1.0003088604878496,156.78118464046383
6.564894208,1.0004599124141969,156.62813025822342
6.567181312,1.0005821625615223,156.47311239429092
6.569468416,1.0006676957841303,156.31658411051782
6.57175552,1.0007111497447059,156.15913242740052
6.574042112,1.0007097659053719,156.00138551566897
6.576329216,1.0006635253161131,155.8439795371494
6.57861632,1.000575503931958,155.68755726812805
6.580903424,1.000451105898953,155.53267772768342
6.583190528,1.0002982902134412,155.37982539767782
6.585477632,1.0001264672669663,155.2293317222276
6.587764224,0.9999467448040538,155.08139095027786
6.590051328,0.9997703248359634,154.9360681188421
6.592338432,0.9996086293888172,154.7932069087578
6.594625536,0.9994716550504343,154.65249866379415
6.59691264,0.9993682318827731,154.51360463681317
6.599199744,0.9993049695487813,154.37590230798364
6.601486336,0.999285818027432,154.23879449817346
6.60377344,0.9993119766775829,154.10168637288396
6.606060544,0.9993820581093108,153.96384767038182
6.608347648,0.9994913717925992,153.82475380584745
6.610634752,0.9996331167627881,153.68384040770673
6.612921856,0.9997983586451733,153.5406898271064
6.615208448,0.999976586557266,153.39505389019985
6.617495552,1.000156385874134,153.24681741297863
6.619782656,1.0003265903048275,153.0960448588759
6.62206976,1.0004763237268417,152.94295568695054
6.624356864,1.0005961222575463,152.78792191015842
6.626643968,1.00067837744271,152.6314601956582
6.628931072,1.0007178857258425,152.4740949452787
6.631217664,1.0007120550422477,152.31648423360411
6.633504768,1.000661420864821,152.15931139507512
6.635791872,1.0005689705387015,152.00314182184468
6.638078976,1.0004404697798288,151.84861039320575
6.64036608,1.0002842676062185,151.6961623517855
6.642653184,1.0001100574897601,151.54611237382633
6.644939776,0.9999288438788411,151.39864524682284
6.64722688,0.9997522423826023,151.25379351584363
6.649513984,0.9995913524709915,151.11140269792887
6.651801088,0.9994563268225022,150.9711721506884
6.654088192,0.9993557818819,150.83266166658984
6.656375296,0.9992962212476796,150.69535897590347
6.658661888,0.9992813758675562,150.55859373840931
6.660948992,0.9993120900428597,150.42172361614988
6.663236096,0.9993865590524729,150.284101167897
6.6655232,0.9995002560645949,150.14510722757834
6.667810304,0.9996456616722454,150.00425081449362
6.670097408,0.9998137387533491,149.8611141979805
6.672384,0.9999939651834459,149.7154758117832
6.674671104,1.0001744938872736,149.56722845435897
6.676958208,1.000344413498782,149.41643149331253
6.679245312,1.0004927900919143,149.2633195282434
6.681532416,1.0006099635027448,149.10830015019772
6.68381952,1.0006890698296975,148.9518652905709
6.686106112,1.000724351522844,148.7945994506131
6.688393216,1.0007141215076771,148.63714915306343
6.69068032,1.000658856672679,148.48022012145688
6.692967424,1.0005618206699625,148.32437724905137
6.695254528,1.0004293921489278,148.1702141360804
6.697541632,1.0002699221676372,148.0181700736008
6.699828224,1.000093317940763,147.86854735582367
6.702115328,0.9999107563148129,147.72157332755108
6.704402432,0.9997339371669289,147.5772153144466
6.706689536,0.9995738757343965,147.43534493309883
6.70897664,0.9994409075563595,147.29557423079115
6.711263744,0.9993434021400223,147.15750622986974
6.713550848,0.9992877258063737,147.02056098621725
6.71583744,0.9992770971651209,146.88412183207865
6.718124544,0.9993124858851898,146.7475301734161
6.720411648,0.9993915478665235,146.61009685196893
6.722698752,0.9995094823075813,146.47123077286895
6.724985856,0.9996586661196506,146.33046101448912
6.72727296,0.999829459926071,146.18736384659417
6.729559552,1.0000114625710557,146.0416921995753
6.731846656,1.0001929566738947,145.8934123950029
6.73413376,1.0003624200775412,145.7425776286076
6.736420864,1.0005090808935122,145.58949099761355
6.738707968,1.000623800848509,145.43445276609344
6.740995072,1.0006992513769908,145.27808830645472
6.743281664,1.0007304100157133,145.12094399220535
6.745568768,1.000715765354288,144.96369534287487
6.747855872,1.0006557224665444,144.80698676895088
6.750142976,1.0005543308306788,144.65146562484748
6.75243008,1.0004179467618393,144.49766356692717
6.754717184,1.0002551855758404,144.34604566746395
6.757003776,1.0000761289721642,144.19693647702368
6.75929088,0.9998922665478986,144.05044104598477
6.761577984,0.9997155049839415,143.90662603934365
6.763865088,0.9995564137371288,143.76521262066288
6.766152192,0.9994256289749744,143.62593243327726
6.768439296,0.9993312873605468,143.4883123910618
6.770725888,0.9992794546234961,143.35175745776118
6.773012992,0.9992733416093614,143.21566828626598
6.775300096,0.9993133177782453,143.07932463797678
6.7775872,0.9993971633994684,142.9420819710401
6.779874304,0.9995192312991265,142.8033812345412
6.782161408,0.999671991792604,142.66266875091654
6.784448512,0.9998457707104232,142.51959425042168
6.786735104,1.0000294394779745,142.3739378850297
6.789022208,1.0002116009993407,142.2256194703648
6.791309312,1.0003805470816791,142.07477090872905
6.793596416,1.0005255360165315,141.92166059807192
6.79588352,1.0006373812459404,141.7666871840545
6.798170624,1.000709282282793,141.610367570588
6.800457216,1.0007362640201987,141.45337137325055
6.80274432,1.0007169276208163,141.29632916699367
6.805031424,1.0006521897704086,141.13988226877714
6.807318528,1.0005463240312988,140.98467619597997
6.809605632,1.0004059022606955,140.83129212152917
6.811892736,1.000239818176382,140.6801298734037
6.814179328,1.0000586750679,140.53147144763753
6.816466432,0.999873604285944,140.3855176946042
6.818753536,0.9996966948877235,140.2421679231943
6.82104064,0.999538938328638,140.10131468377125
6.823327744,0.9994104349838653,139.96253123189203
6.825614848,0.99931933143929,139.8253379014951
6.82790144,0.9992714687201285,139.68921451536133
6.830188544,0.9992699681985715,139.55344807618172
6.832475648,0.999314670448217,139.4173446495985
6.834762752,0.9994031693438967,139.28031018099145
6.837049856,0.9995294510750887,139.1417239132523
6.83933696,0.9996859423087414,139.00111917783002
6.841623552,0.9998624692148139,138.8580771784308
6.843910656,1.000047847804392,138.71240535359507
6.84619776,1.0002304904249106,138.56407820471634
6.848484864,1.0003986401632923,138.4132138392607
6.850771968,1.0005419247834613,138.26009966527425
6.853059072,1.000650950805551,138.10516523760566
6.855345664,1.0007190703006885,137.9489702913107
6.857632768,1.0007417512589443,137.79210228947727
6.859919872,1.0007176410888459,137.63525278395508
6.862206976,1.0006481932327775,137.47909549524996
6.86449408,1.0005378062492412,137.32424023550266
6.866781184,1.0003934602965945,137.17123385891819
6.869068288,1.0002241651072228,137.02052727538802
6.87135488,1.000040732444084,136.8724024962746
6.873641984,0.9998546304450078,136.72696123188442
6.875929088,0.9996777964188291,136.58417364113174
6.878216192,0.9995213706497541,136.44380761419043
6.880503296,0.9993953248526634,136.3055515873483
6.8827904,0.9993075248190523,136.16882366921786
6.885076992,0.9992637579378087,136.03308671282934
6.887364096,0.9992668172464487,135.89762064284622
6.8896512,0.9993164414738362,135.7618300663108
6.891938304,0.9994096259789836,135.62501749096634
6.894225408,0.9995402490476321,135.48655105319327
6.896512512,0.9997003403591355,135.34600697269303
6.898799104,0.9998794392899388,135.2030088145965
6.901086208,1.0000664856367274,135.05733890582366
6.903373312,1.0002495318144407,134.90899057843848
6.905660416,1.0004170035998459,134.75814558855774
6.90794752,1.000558306420475,134.60501731725387
6.910234624,1.0006644799221336,134.45016296850605
6.912521216,1.0007287180789324,134.29402649022703
6.91480832,1.0007468788669998,134.13733660302682
6.917095424,1.0007179584378445,133.98071383480234
6.919382528,1.0006438043468175,133.82483709181116
6.921669632,1.0005289259481993,133.67036150828955
